011111101010110
010000101000101
000111000011001
000100110010100
000100101110010
001001111110101
010001011011011
011100000000101
001000110010000
011000101111110
001001110001111
011101111100010
010010010010110
001000101001100
100000000100011
011000100111010
000000000000000
000000000000000
000000000000000
000000000000000
000000000000000
000000000000000
000000000000000
000000000000000
000000000000000
000000000000000
000000000000000
000000000000000
000000000000000
000000000000000
000000000000000
000000000000000
000000000000000
000000000000000
011100011110011
001110100000011
000101111010111
000001100110001
000010100110000
000111110110011
001111010011001
011010111000011
000111101101111
010111101011101
001001110001111
011101111100010
010001001110101
000111100101011
011111000000010
010111100011001
000000000000000
000000000000000
000000000000000
000000000000000
000000000000000
000000000000000
000000000000000
000000000000000
000000000000000
000000000000000
000000000000000
000000000000000
000000000000000
000000000000000
000000000000000
000000000000000
000000000000000
000000000000000
011001010010000
001011010100000
000011110010101
100000011101111
000000011101110
000101101110001
001110001111000
011001110100010
000110101001110
010110100111100
001000101101110
011100111000001
010000001010100
000110100001010
011111000000010
010111100011001
000000000000000
000000000000000
000000000000000
000000000000000
000000000000000
000000000000000
000000000000000
000000000000000
000000000000000
000000000000000
000000000000000
000000000000000
000000000000000
000000000000000
000000000000000
000000000000000
000000000000000
000000000000000
010110000101101
001000001011100
000000100110010
011110010101101
100000011001101
000100101010000
001100000110110
011000110000001
000101100101101
010101100011011
000111101001101
011011110100000
010000001010100
000110100001010
011110111100001
010111100011001
000000000000000
000000000000000
000000000000000
000000000000000
000000000000000
000000000000000
000000000000000
000000000000000
000000000000000
000000000000000
000000000000000
000000000000000
000000000000000
000000000000000
000000000000000
000000000000000
000000000000000
000000000000000
010010110101001
000101111111001
011111011110000
011100001101011
011110010001011
000010100001110
001011000010101
010111101100000
000100100001100
010100011111010
000110100101100
011010110011110
001111000110011
000101011101001
011110111100001
010110011111000
000000000000000
000000000000000
000000000000000
000000000000000
000000000000000
000000000000000
000000000000000
000000000000000
000000000000000
000000000000000
000000000000000
000000000000000
000000000000000
000000000000000
000000000000000
000000000000000
000000000000000
000000000000000
001111101000110
000011110110111
011100010001101
011010000101001
011100001001001
000000011001100
001001111010011
010101100111101
000011011101011
010011011011001
000101100001011
011010110011110
001110000010010
000101011101001
011101111000000
010110011111000
000000000000000
000000000000000
000000000000000
000000000000000
000000000000000
000000000000000
000000000000000
000000000000000
000000000000000
000000000000000
000000000000000
000000000000000
000000000000000
000000000000000
000000000000000
000000000000000
000000000000000
000000000000000
001100011100011
000000101010100
011010001001011
011000111100111
011010000000111
100000010101011
001000110110010
010100100011100
000010011001010
010011011011001
000100011101010
011001101111101
001110000010010
000100011001000
011101111000000
010101011010111
000000000000000
000000000000000
000000000000000
000000000000000
000000000000000
000000000000000
000000000000000
000000000000000
000000000000000
000000000000000
000000000000000
000000000000000
000000000000000
000000000000000
000000000000000
000000000000000
000000000000000
000000000000000
001001010000000
011110011110001
011000000001001
010110110100101
011000111000101
011110001101001
000111110010001
010011011111011
000001010101001
010010010111000
000011011001001
011000101011100
001101111110001
000100011001000
011100110111110
010101011010111
000000000000000
000000000000000
000000000000000
000000000000000
000000000000000
000000000000000
000000000000000
000000000000000
000000000000000
000000000000000
000000000000000
000000000000000
000000000000000
000000000000000
000000000000000
000000000000000
000000000000000
000000000000000
000110000111100
011100010101111
010101110100110
010100101100011
010110110000011
011101001001000
000101101001111
010010011011010
000000010001000
010001010010111
000011011001001
010111100111011
001101111110001
000011010100111
011100110111110
000000000000000
000010010000110
011011110011101
000000000000000
000000000000000
000000000000000
000000000000000
000000000000000
000000000000000
000000000000000
000000000000000
000000000000000
000000000000000
000000000000000
000000000000000
000000000000000
000000000000000
000000000000000
000000000000000
000011111011001
011001001001100
010011101100100
010010100100001
010101101100010
011011000000110
000100100101110
010000010011000
100000001100111
010000001110110
000010010101000
010111100111011
001100111010000
000000000000000
010110100011010
001011110101111
000010010000110
011011110011101
000000000000000
000000000000000
000000000000000
000000000000000
000000000000000
000000000000000
000000000000000
000000000000000
000000000000000
000000000000000
000000000000000
000000000000000
000000000000000
000000000000000
000000000000000
000000000000000
000000101110110
010110111101001
010001100100010
010000011111110
010011100100000
011010111100101
000011100001101
001111001110111
011110000100101
001111001010101
000001010000111
000000000000000
001110000110100
000000001100110
010101011111001
001011110101111
000001001100101
011010101111100
000000000000000
000000000000000
000000000000000
000000000000000
000000000000000
000000000000000
000000000000000
000000000000000
000000000000000
000000000000000
000000000000000
000000000000000
000000000000000
000000000000000
000000000000000
000000000000000
011111100110100
010100110100111
001111011100000
001110010111100
010001011111101
011000110100011
000001011001011
001110001010110
011101000000100
000000000000000
001101000110101
011100111100011
001101000010011
100000001000101
010100011011000
001010110001110
000001001100101
011010101111100
000000000000000
000000000000000
000000000000000
000000000000000
000000000000000
000000000000000
000000000000000
000000000000000
000000000000000
000000000000000
000000000000000
000000000000000
000000000000000
000000000000000
000000000000000
000000000000000
011100011010001
010001101000100
001100010011100
001100001111010
001111010111011
010111110000010
000000010101010
000000000000000
010101101000000
100000010001001
001100000010100
011011111000010
001100111110010
100000001000101
010100011011000
001001101101101
000000001000100
011001101011011
000000000000000
000000000000000
000000000000000
000000000000000
000000000000000
000000000000000
000000000000000
000000000000000
000000000000000
000000000000000
000000000000000
000000000000000
000000000000000
000000000000000
000000000000000
000000000000000
011001001101110
001111100000010
001010001011010
001010000111000
001110010011010
000000000000000
001000111110110
001100001011000
010100100111110
011110001000111
001011111110011
011010110100001
001011111010001
011111000100100
010011010110111
001001101101101
000000001000100
011001101011011
000000000000000
000000000000000
000000000000000
000000000000000
000000000000000
000000000000000
000000000000000
000000000000000
000000000000000
000000000000000
000000000000000
000000000000000
000000000000000
000000000000000
000000000000000
000000000000000
010110000001011
001100010111110
001000000011000
000000000000000
001010001111100
000110111010110
000110110110100
001010000010110
010010011111100
011101000100110
001001110110001
011001110000000
001010110110000
011110000000011
010010010010110
001000101001100
100000000100011
011000100111010
000000000000000
000000000000000
000000000000000
000000000000000
000000000000000
000000000000000
000000000000000
000000000000000
000000000000000
000000000000000
000000000000000
000000000000000
000000000000000
000000000000000
000000000000000
000000000000000
010011110101000
000000000000000
010011110101000
001010001111100
000110111010110
000110110110100
001010000010110
010010011111100
011101000100110
001001110110001
011001110000000
001010110110000
011110000000011
010010010010110
001000101001100
100000000100011
011000100111010
000000000000000
000000000000000
000000000000000
000000000000000
000000000000000
000000000000000
000000000000000
000000000000000
000000000000000
000000000000000
000000000000000
000000000000000
000000000000000
000000000000000
000000000000000
000000000000000
000000000000000
000000000000000
011111101010110
010000101000101
000111000011001
000011101110011
000100101110010
001001111110101
010001011011011
011100000000101
001000110010000
011000101111110
001001110001111
011101111100010
010010010010110
001000101001100
100000000100011
011000100111010
000000000000000
000000000000000
000000000000000
000000000000000
000000000000000
000000000000000
000000000000000
000000000000000
000000000000000
000000000000000
000000000000000
000000000000000
000000000000000
000000000000000
000000000000000
000000000000000
000000000000000
000000000000000
011100011110011
001101011100010
000101111010111
000001100110001
000010100110000
000111110110011
001111010011001
011010111000011
000111101101111
010111101011101
001001110001111
011100111000001
010001001110101
000111100101011
011111000000010
010111100011001
000000000000000
000000000000000
000000000000000
000000000000000
000000000000000
000000000000000
000000000000000
000000000000000
000000000000000
000000000000000
000000000000000
000000000000000
000000000000000
000000000000000
000000000000000
000000000000000
000000000000000
000000000000000
011001010010000
001011010100000
000010101110100
100000011101111
000000011101110
000101101110001
001110001111000
011001110100010
000110101001110
010110100111100
001000101101110
011100111000001
010000001010100
000110100001010
011111000000010
010111100011001
000000000000000
000000000000000
000000000000000
000000000000000
000000000000000
000000000000000
000000000000000
000000000000000
000000000000000
000000000000000
000000000000000
000000000000000
000000000000000
000000000000000
000000000000000
000000000000000
000000000000000
000000000000000
010101000001100
001000001011100
000000100110010
011110010101101
011111010101100
000100101010000
001100000110110
011000110000001
000101100101101
010101100011011
000111101001101
011011110100000
010000001010100
000110100001010
011110111100001
010110011111000
000000000000000
000000000000000
000000000000000
000000000000000
000000000000000
000000000000000
000000000000000
000000000000000
000000000000000
000000000000000
000000000000000
000000000000000
000000000000000
000000000000000
000000000000000
000000000000000
000000000000000
000000000000000
010010110101001
000101111111001
011111011110000
011100001101011
011110010001011
000010100001110
001011000010101
010111101100000
000100100001100
010100011111010
000110100101100
011010110011110
001111000110011
000101011101001
011110111100001
010110011111000
000000000000000
000000000000000
000000000000000
000000000000000
000000000000000
000000000000000
000000000000000
000000000000000
000000000000000
000000000000000
000000000000000
000000000000000
000000000000000
000000000000000
000000000000000
000000000000000
000000000000000
000000000000000
001111101000110
000011110110111
011100010001101
011010000101001
011100001001001
000000011001100
001001111010011
010101100111101
000011011101011
010011011011001
000101100001011
011001101111101
001110000010010
000101011101001
011101111000000
010110011111000
000000000000000
000000000000000
000000000000000
000000000000000
000000000000000
000000000000000
000000000000000
000000000000000
000000000000000
000000000000000
000000000000000
000000000000000
000000000000000
000000000000000
000000000000000
000000000000000
000000000000000
000000000000000
001100011100011
000000101010100
011010001001011
011000111100111
011010000000111
100000010101011
001000110110010
010100100011100
000010011001010
010010010111000
000100011101010
011001101111101
001110000010010
000100011001000
011101111000000
010101011010111
000000000000000
000000000000000
000000000000000
000000000000000
000000000000000
000000000000000
000000000000000
000000000000000
000000000000000
000000000000000
000000000000000
000000000000000
000000000000000
000000000000000
000000000000000
000000000000000
000000000000000
000000000000000
001001010000000
011110011110001
011000000001001
010110110100101
011000111000101
011110001101001
000111110010001
010011011111011
000001010101001
010010010111000
000011011001001
011000101011100
001101111110001
000100011001000
011100110111110
010101011010111
000000000000000
011100110111110
000000000000000
000000000000000
000000000000000
000000000000000
000000000000000
000000000000000
000000000000000
000000000000000
000000000000000
000000000000000
000000000000000
000000000000000
000000000000000
000000000000000
000000000000000
000000000000000
000110000111100
011100010101111
010101110100110
010100101100011
010110110000011
011101001001000
000101101001111
010010011011010
000000010001000
010001010010111
000011011001001
010111100111011
001100111010000
000011010100111
000000000000000
001100111010000
000010010000110
011011110011101
000000000000000
000000000000000
000000000000000
000000000000000
000000000000000
000000000000000
000000000000000
000000000000000
000000000000000
000000000000000
000000000000000
000000000000000
000000000000000
000000000000000
000000000000000
000000000000000
000011111011001
011001001001100
010011101100100
010010100100001
010101101100010
011011000000110
000100100101110
010000010011000
011111001000110
010000001110110
000010010101000
010111100111011
000000000000000
000001010000111
010110100011010
001011110101111
000010010000110
011011110011101
000000000000000
000000000000000
000000000000000
000000000000000
000000000000000
000000000000000
000000000000000
000000000000000
000000000000000
000000000000000
000000000000000
000000000000000
000000000000000
000000000000000
000000000000000
000000000000000
000000101110110
010110111101001
010001100100010
010000011111110
010011100100000
011010111100101
000011100001101
001111001110111
011110000100101
001111001010101
000000000000000
011101000000100
001110000110100
000000001100110
010101011111001
001011110101111
000001001100101
011010101111100
000000000000000
000000000000000
000000000000000
000000000000000
000000000000000
000000000000000
000000000000000
000000000000000
000000000000000
000000000000000
000000000000000
000000000000000
000000000000000
000000000000000
000000000000000
000000000000000
011110100010011
010100110100111
001110011011110
001110010111100
010001011111101
011000110100011
000001011001011
001110001010110
000000000000000
000000010101010
001101000110101
011100111100011
001101000010011
100000001000101
010100011011000
001010110001110
000001001100101
011010101111100
000000000000000
000000000000000
000000000000000
000000000000000
000000000000000
000000000000000
000000000000000
000000000000000
000000000000000
000000000000000
000000000000000
000000000000000
000000000000000
000000000000000
000000000000000
000000000000000
011100011010001
010001101000100
001100010011100
001100001111010
001111010111011
010111110000010
000000000000000
001110010011010
010101101000000
100000010001001
001100000010100
011011111000010
001100111110010
100000001000101
010100011011000
001001101101101
000000001000100
011001101011011
000000000000000
000000000000000
000000000000000
000000000000000
000000000000000
000000000000000
000000000000000
000000000000000
000000000000000
000000000000000
000000000000000
000000000000000
000000000000000
000000000000000
000000000000000
000000000000000
011001001101110
001111100000010
001010001011010
001010000111000
000000000000000
001000000011000
001000111110110
001100001011000
010100100111110
011110001000111
001011111110011
011010110100001
001011111010001
011111000100100
010011010110111
001001101101101
000000001000100
011001101011011
000000000000000
000000000000000
000000000000000
000000000000000
000000000000000
000000000000000
000000000000000
000000000000000
000000000000000
000000000000000
000000000000000
000000000000000
000000000000000
000000000000000
000000000000000
000000000000000
010110000001011
001100010111110
000000000000000
001100010111110
001000000011000
001000111110110
001100001011000
010100100111110
011110001000111
001011111110011
011010110100001
001011111010001
011111000100100
010011010110111
001001101101101
000000001000100
011001101011011
000000000000000
000000000000000
000000000000000
000000000000000
000000000000000
000000000000000
000000000000000
000000000000000
000000000000000
000000000000000
000000000000000
000000000000000
000000000000000
000000000000000
000000000000000
000000000000000
010110000001011
000000000000000
000000000000000
010011110101000
001010001111100
000110111010110
000110110110100
001010000010110
010010011111100
011101000100110
001001110110001
011001110000000
001010110110000
011110000000011
010010010010110
001000101001100
100000000100011
011000100111010
000000000000000
000000000000000
000000000000000
000000000000000
000000000000000
000000000000000
000000000000000
000000000000000
000000000000000
000000000000000
000000000000000
000000000000000
000000000000000
000000000000000
000000000000000
000000000000000
000000000000000
000000000000000
011111101010110
010000101000101
000111000011001
000011101110011
000100101110010
001001111110101
010001011011011
011100000000101
001000110010000
011000101111110
001001110001111
011101111100010
010010010010110
001000101001100
100000000100011
011000100111010
000000000000000
000000000000000
000000000000000
000000000000000
000000000000000
000000000000000
000000000000000
000000000000000
000000000000000
000000000000000
000000000000000
000000000000000
000000000000000
000000000000000
000000000000000
000000000000000
000000000000000
000000000000000
011100011110011
001101011100010
000101111010111
000001100110001
000010100110000
000111110110011
001111010011001
011010111000011
000111101101111
010111101011101
001000101101110
011100111000001
010001001110101
000111100101011
011111000000010
010111100011001
000000000000000
000000000000000
000000000000000
000000000000000
000000000000000
000000000000000
000000000000000
000000000000000
000000000000000
000000000000000
000000000000000
000000000000000
000000000000000
000000000000000
000000000000000
000000000000000
000000000000000
000000000000000
011001010010000
001011010100000
000010101110100
100000011101111
000000011101110
000101101110001
001110001111000
011001110100010
000110101001110
010110100111100
001000101101110
011100111000001
010000001010100
000110100001010
011111000000010
010111100011001
000000000000000
000000000000000
000000000000000
000000000000000
000000000000000
000000000000000
000000000000000
000000000000000
000000000000000
000000000000000
000000000000000
000000000000000
000000000000000
000000000000000
000000000000000
000000000000000
000000000000000
000000000000000
010101000001100
001000001011100
000000100110010
011110010101101
011111010101100
000100101010000
001100000110110
011000110000001
000101100101101
010101100011011
000111101001101
011011110100000
010000001010100
000110100001010
011110111100001
010110011111000
000000000000000
000000000000000
000000000000000
000000000000000
000000000000000
000000000000000
000000000000000
000000000000000
000000000000000
000000000000000
000000000000000
000000000000000
000000000000000
000000000000000
000000000000000
000000000000000
000000000000000
000000000000000
010010110101001
000101111111001
011111011110000
011100001101011
011110010001011
000010100001110
001011000010101
010111101100000
000100100001100
010100011111010
000110100101100
011010110011110
001111000110011
000101011101001
011110111100001
010110011111000
000000000000000
000000000000000
000000000000000
000000000000000
000000000000000
000000000000000
000000000000000
000000000000000
000000000000000
000000000000000
000000000000000
000000000000000
000000000000000
000000000000000
000000000000000
000000000000000
000000000000000
000000000000000
001111101000110
000010110010110
011100010001101
011010000101001
011100001001001
000000011001100
001001111010011
010101100111101
000011011101011
010011011011001
000101100001011
011001101111101
001110000010010
000101011101001
011101111000000
010110011111000
000000000000000
000000000000000
000000000000000
000000000000000
000000000000000
000000000000000
000000000000000
000000000000000
000000000000000
000000000000000
000000000000000
000000000000000
000000000000000
000000000000000
000000000000000
000000000000000
000000000000000
000000000000000
001100011100011
000000101010100
011010001001011
011000111100111
011010000000111
100000010101011
001000110110010
010100100011100
000010011001010
010010010111000
000100011101010
011001101111101
001110000010010
000100011001000
011101111000000
010101011010111
000000000000000
000000000000000
010101011010111
000000000000000
000000000000000
000000000000000
000000000000000
000000000000000
000000000000000
000000000000000
000000000000000
000000000000000
000000000000000
000000000000000
000000000000000
000000000000000
000000000000000
000000000000000
001001010000000
011110011110001
011000000001001
010110110100101
011000111000101
011110001101001
000111110010001
010011011111011
000001010101001
010010010111000
000011011001001
011000101011100
001101111110001
000100011001000
011100110111110
000000000000000
000011010100111
011100110111110
000000000000000
000000000000000
000000000000000
000000000000000
000000000000000
000000000000000
000000000000000
000000000000000
000000000000000
000000000000000
000000000000000
000000000000000
000000000000000
000000000000000
000000000000000
000000000000000
000110000111100
011100010101111
010101110100110
010100101100011
010110110000011
011101001001000
000101101001111
010010011011010
100000001100111
010001010010111
000011011001001
010111100111011
001100111010000
000000000000000
010111100111011
001100111010000
000010010000110
011011110011101
000000000000000
000000000000000
000000000000000
000000000000000
000000000000000
000000000000000
000000000000000
000000000000000
000000000000000
000000000000000
000000000000000
000000000000000
000000000000000
000000000000000
000000000000000
000000000000000
000011111011001
011001001001100
010011101100100
010010100100001
010101101100010
011011000000110
000100100101110
010000010011000
011111001000110
010000001110110
000010010101000
000000000000000
001111001010101
000001010000111
010110100011010
001011110101111
000010010000110
011011110011101
000000000000000
000000000000000
000000000000000
000000000000000
000000000000000
000000000000000
000000000000000
000000000000000
000000000000000
000000000000000
000000000000000
000000000000000
000000000000000
000000000000000
000000000000000
000000000000000
000000101110110
010110111101001
010001100100010
010000011111110
010011100100000
011010111100101
000010011101100
001111001110111
011110000100101
000000000000000
001110001010110
011101000000100
001110000110100
000000001100110
010101011111001
001011110101111
000001001100101
011010101111100
000000000000000
000000000000000
000000000000000
000000000000000
000000000000000
000000000000000
000000000000000
000000000000000
000000000000000
000000000000000
000000000000000
000000000000000
000000000000000
000000000000000
000000000000000
000000000000000
011110100010011
010100110100111
001110011011110
001110010111100
010001011111101
011000110100011
000001011001011
000000000000000
010111110000010
000000010101010
001101000110101
011100111100011
001101000010011
100000001000101
010100011011000
001010110001110
000001001100101
011010101111100
000000000000000
000000000000000
000000000000000
000000000000000
000000000000000
000000000000000
000000000000000
000000000000000
000000000000000
000000000000000
000000000000000
000000000000000
000000000000000
000000000000000
000000000000000
000000000000000
011011010110000
010001101000100
001100010011100
001100001111010
001111010111011
000000000000000
001010000111000
001110010011010
010101101000000
011111001101000
001100000010100
011011111000010
001100111110010
100000001000101
010100011011000
001001101101101
000000001000100
011001101011011
000000000000000
000000000000000
000000000000000
000000000000000
000000000000000
000000000000000
000000000000000
000000000000000
000000000000000
000000000000000
000000000000000
000000000000000
000000000000000
000000000000000
000000000000000
000000000000000
011001001101110
001111100000010
001010001011010
000000000000000
001010001011010
001010000111000
001110010011010
010101101000000
011111001101000
001100000010100
011011111000010
001100111110010
100000001000101
010100011011000
001001101101101
000000001000100
011001101011011
000000000000000
000000000000000
000000000000000
000000000000000
000000000000000
000000000000000
000000000000000
000000000000000
000000000000000
000000000000000
000000000000000
000000000000000
000000000000000
000000000000000
000000000000000
000000000000000
011001001101110
001111100000010
000000000000000
010110000001011
001100010111110
001000000011000
001000111110110
001100001011000
010011100011101
011110001000111
001011111110011
011010110100001
001011111010001
011111000100100
010011010110111
001001101101101
000000001000100
011001101011011
000000000000000
000000000000000
000000000000000
000000000000000
000000000000000
000000000000000
000000000000000
000000000000000
000000000000000
000000000000000
000000000000000
000000000000000
000000000000000
000000000000000
000000000000000
000000000000000
000000000000000
000000000000000
000000000000000
010011110101000
001010001111100
000101110110101
000110110110100
001010000010110
010010011111100
011101000100110
001001110110001
011001110000000
001010110110000
011110000000011
010010010010110
001000101001100
100000000100011
011000100111010
000000000000000
000000000000000
000000000000000
000000000000000
000000000000000
000000000000000
000000000000000
000000000000000
000000000000000
000000000000000
000000000000000
000000000000000
000000000000000
000000000000000
000000000000000
000000000000000
000000000000000
000000000000000
011111101010110
010000101000101
000111000011001
000011101110011
000100101110010
001001111110101
010001011011011
011100000000101
001000110010000
011000101111110
001001110001111
011101111100010
010010010010110
001000101001100
100000000100011
011000100111010
000000000000000
000000000000000
000000000000000
000000000000000
000000000000000
000000000000000
000000000000000
000000000000000
000000000000000
000000000000000
000000000000000
000000000000000
000000000000000
000000000000000
000000000000000
000000000000000
000000000000000
000000000000000
011100011110011
001101011100010
000101111010111
000001100110001
000010100110000
000111110110011
001111010011001
011010111000011
000111101101111
010111101011101
001000101101110
011100111000001
010001001110101
000111100101011
011111000000010
010111100011001
000000000000000
000000000000000
000000000000000
000000000000000
000000000000000
000000000000000
000000000000000
000000000000000
000000000000000
000000000000000
000000000000000
000000000000000
000000000000000
000000000000000
000000000000000
000000000000000
000000000000000
000000000000000
011000001101111
001011010100000
000010101110100
100000011101111
000000011101110
000101101110001
001110001111000
011001110100010
000110101001110
010110100111100
001000101101110
011100111000001
010000001010100
000110100001010
011111000000010
010111100011001
000000000000000
000000000000000
000000000000000
000000000000000
000000000000000
000000000000000
000000000000000
000000000000000
000000000000000
000000000000000
000000000000000
000000000000000
000000000000000
000000000000000
000000000000000
000000000000000
000000000000000
000000000000000
010101000001100
001000001011100
000000100110010
011110010101101
011111010101100
000100101010000
001100000110110
011000110000001
000101100101101
010101100011011
000111101001101
011011110100000
010000001010100
000110100001010
011110111100001
010110011111000
000000000000000
000000000000000
000000000000000
000000000000000
000000000000000
000000000000000
000000000000000
000000000000000
000000000000000
000000000000000
000000000000000
000000000000000
000000000000000
000000000000000
000000000000000
000000000000000
000000000000000
000000000000000
010010110101001
000101111111001
011110011001111
011100001101011
011110010001011
000010100001110
001011000010101
010110101011110
000100100001100
010100011111010
000110100101100
011010110011110
001111000110011
000101011101001
011110111100001
010110011111000
000000000000000
000000000000000
000000000000000
000000000000000
000000000000000
000000000000000
000000000000000
000000000000000
000000000000000
000000000000000
000000000000000
000000000000000
000000000000000
000000000000000
000000000000000
000000000000000
000000000000000
000000000000000
001111101000110
000010110010110
011100010001101
011010000101001
011100001001001
000000011001100
001001111010011
010101100111101
000011011101011
010011011011001
000101100001011
011001101111101
001110000010010
000101011101001
011101111000000
010110011111000
000000000000000
000000000000000
000000000000000
000000000000000
000000000000000
000000000000000
000000000000000
000000000000000
000000000000000
000000000000000
000000000000000
000000000000000
000000000000000
000000000000000
000000000000000
000000000000000
000000000000000
000000000000000
001100011100011
000000101010100
011010001001011
011000111100111
011010000000111
100000010101011
001000110110010
010100100011100
000010011001010
010010010111000
000100011101010
011001101111101
001110000010010
000100011001000
011101111000000
010101011010111
000000000000000
011100110111110
010101011010111
000000000000000
000000000000000
000000000000000
000000000000000
000000000000000
000000000000000
000000000000000
000000000000000
000000000000000
000000000000000
000000000000000
000000000000000
000000000000000
000000000000000
000000000000000
001001010000000
011110011110001
010111111101000
010110110100101
011000111000101
011110001101001
000111110010001
010011011111011
000001010101001
010001010010111
000011011001001
011000101011100
001101111110001
000100011001000
000000000000000
001100111010000
000011010100111
011100110111110
000000000000000
000000000000000
000000000000000
000000000000000
000000000000000
000000000000000
000000000000000
000000000000000
000000000000000
000000000000000
000000000000000
000000000000000
000000000000000
000000000000000
000000000000000
000000000000000
000110000111100
011011010001110
010101110100110
010100101100011
010110110000011
011101001001000
000101101001111
010010011011010
100000001100111
010001010010111
000011011001001
010111100111011
000000000000000
000010010101000
010111100111011
001100111010000
000010010000110
011011110011101
000000000000000
000000000000000
000000000000000
000000000000000
000000000000000
000000000000000
000000000000000
000000000000000
000000000000000
000000000000000
000000000000000
000000000000000
000000000000000
000000000000000
000000000000000
000000000000000
000011111011001
011001001001100
010011101100100
010010100100001
010101101100010
011011000000110
000100100101110
010000010011000
011111001000110
010000001110110
000000000000000
011110000100101
001111001010101
000001010000111
010110100011010
001011110101111
000010010000110
011011110011101
000000000000000
000000000000000
000000000000000
000000000000000
000000000000000
000000000000000
000000000000000
000000000000000
000000000000000
000000000000000
000000000000000
000000000000000
000000000000000
000000000000000
000000000000000
000000000000000
000000101110110
010110111101001
010001100100010
010000011111110
010011100100000
011010111100101
000010011101100
001111001110111
000000000000000
000001011001011
001110001010110
011101000000100
001110000110100
000000001100110
010101011111001
001011110101111
000001001100101
011010101111100
000000000000000
000000000000000
000000000000000
000000000000000
000000000000000
000000000000000
000000000000000
000000000000000
000000000000000
000000000000000
000000000000000
000000000000000
000000000000000
000000000000000
000000000000000
000000000000000
011110100010011
010100110100111
001110011011110
001110010111100
010001011111101
011000110100011
000000000000000
001111010111011
010110101100001
000000010101010
001101000110101
011100111100011
001101000010011
100000001000101
010100011011000
001010110001110
000001001100101
011010101111100
000000000000000
000000000000000
000000000000000
000000000000000
000000000000000
000000000000000
000000000000000
000000000000000
000000000000000
000000000000000
000000000000000
000000000000000
000000000000000
000000000000000
000000000000000
000000000000000
011011010110000
010001101000100
001100010011100
001100001111010
000000000000000
001100001111010
001111010111011
010110101100001
000000010101010
001101000110101
011100111100011
001101000010011
100000001000101
010100011011000
001010110001110
000001001100101
011010101111100
000000000000000
000000000000000
000000000000000
000000000000000
000000000000000
000000000000000
000000000000000
000000000000000
000000000000000
000000000000000
000000000000000
000000000000000
000000000000000
000000000000000
000000000000000
000000000000000
011011010110000
010001101000100
001100010011100
000000000000000
001111100000010
001010001011010
001010000111000
001110010011010
010101101000000
011111001101000
001100000010100
011011111000010
001100111110010
100000001000101
010100011011000
001001101101101
000000001000100
011001101011011
000000000000000
000000000000000
000000000000000
000000000000000
000000000000000
000000000000000
000000000000000
000000000000000
000000000000000
000000000000000
000000000000000
000000000000000
000000000000000
000000000000000
000000000000000
000000000000000
011000001001101
000000000000000
000000000000000
010110000001011
001100010111110
001000000011000
001000111110110
001100001011000
010011100011101
011110001000111
001010111010010
011010110100001
001011111010001
011111000100100
010011010110111
001001101101101
000000001000100
011001101011011
000000000000000
000000000000000
000000000000000
000000000000000
000000000000000
000000000000000
000000000000000
000000000000000
000000000000000
000000000000000
000000000000000
000000000000000
000000000000000
000000000000000
000000000000000
000000000000000
000000000000000
000000000000000
000000000000000
010011110101000
001010001111100
000101110110101
000110110110100
001010000010110
010010011111100
011101000100110
001001110110001
011001110000000
001010110110000
011110000000011
010010010010110
001000101001100
100000000100011
011000100111010
000000000000000
000000000000000
000000000000000
000000000000000
000000000000000
000000000000000
000000000000000
000000000000000
000000000000000
000000000000000
000000000000000
000000000000000
000000000000000
000000000000000
000000000000000
000000000000000
000000000000000
000000000000000
011111101010110
010000101000101
000111000011001
000011101110011
000100101110010
001000111010100
010000010111010
011011111100100
001000110010000
011000101111110
001001110001111
011101111100010
010010010010110
001000101001100
100000000100011
011000100111010
000000000000000
000000000000000
000000000000000
000000000000000
000000000000000
000000000000000
000000000000000
000000000000000
000000000000000
000000000000000
000000000000000
000000000000000
000000000000000
000000000000000
000000000000000
000000000000000
000000000000000
000000000000000
011011011010010
001101011100010
000101111010111
000001100110001
000010100110000
000111110110011
001111010011001
011010111000011
000111101101111
010111101011101
001000101101110
011100111000001
010001001110101
000111100101011
011111000000010
010111100011001
000000000000000
000000000000000
000000000000000
000000000000000
000000000000000
000000000000000
000000000000000
000000000000000
000000000000000
000000000000000
000000000000000
000000000000000
000000000000000
000000000000000
000000000000000
000000000000000
000000000000000
000000000000000
011000001101111
001010010011110
000010101110100
100000011101111
000000011101110
000101101110001
001110001111000
011001110100010
000110101001110
010110100111100
001000101101110
011100111000001
010000001010100
000110100001010
011111000000010
010111100011001
000000000000000
000000000000000
000000000000000
000000000000000
000000000000000
000000000000000
000000000000000
000000000000000
000000000000000
000000000000000
000000000000000
000000000000000
000000000000000
000000000000000
000000000000000
000000000000000
000000000000000
000000000000000
010101000001100
001000001011100
000000100110010
011110010101101
011111010101100
000100101010000
001100000110110
011000110000001
000101100101101
010101100011011
000111101001101
011011110100000
010000001010100
000110100001010
011110111100001
010110011111000
000000000000000
000000000000000
000000000000000
000000000000000
000000000000000
000000000000000
000000000000000
000000000000000
000000000000000
000000000000000
000000000000000
000000000000000
000000000000000
000000000000000
000000000000000
000000000000000
000000000000000
000000000000000
010010110101001
000101111111001
011110011001111
011100001101011
011101001101010
000010100001110
001011000010101
010110101011110
000100100001100
010100011111010
000110100101100
011010110011110
001111000110011
000101011101001
011110111100001
010110011111000
000000000000000
000000000000000
000000000000000
000000000000000
000000000000000
000000000000000
000000000000000
000000000000000
000000000000000
000000000000000
000000000000000
000000000000000
000000000000000
000000000000000
000000000000000
000000000000000
000000000000000
000000000000000
001111101000110
000010110010110
011100010001101
011010000101001
011100001001001
000000011001100
001001111010011
010101100111101
000011011101011
010011011011001
000101100001011
011001101111101
001110000010010
000101011101001
011101111000000
010110011111000
000000000000000
000000000000000
010101011010111
000000000000000
000000000000000
000000000000000
000000000000000
000000000000000
000000000000000
000000000000000
000000000000000
000000000000000
000000000000000
000000000000000
000000000000000
000000000000000
000000000000000
000000000000000
001100011100011
000000101010100
011010001001011
011000111100111
011010000000111
100000010101011
001000110110010
010100100011100
000010011001010
010010010111000
000100011101010
011001101111101
001110000010010
000100011001000
011101111000000
000000000000000
000011010100111
011100110111110
010101011010111
000000000000000
000000000000000
000000000000000
000000000000000
000000000000000
000000000000000
000000000000000
000000000000000
000000000000000
000000000000000
000000000000000
000000000000000
000000000000000
000000000000000
000000000000000
001001010000000
011110011110001
010111111101000
010110110100101
011000111000101
011110001101001
000111110010001
010011011111011
000000010001000
010001010010111
000011011001001
011000101011100
001101111110001
000000000000000
010111100111011
001100111010000
000011010100111
011100110111110
000000000000000
000000000000000
000000000000000
000000000000000
000000000000000
000000000000000
000000000000000
000000000000000
000000000000000
000000000000000
000000000000000
000000000000000
000000000000000
000000000000000
000000000000000
000000000000000
000110000111100
011011010001110
010101110100110
010100101100011
010110110000011
011101001001000
000101101001111
010010011011010
100000001100111
010001010010111
000011011001001
000000000000000
010000001110110
000010010101000
010111100111011
001100111010000
000010010000110
011011110011101
000000000000000
000000000000000
000000000000000
000000000000000
000000000000000
000000000000000
000000000000000
000000000000000
000000000000000
000000000000000
000000000000000
000000000000000
000000000000000
000000000000000
000000000000000
000000000000000
000011111011001
011001001001100
010011101100100
010010100100001
010100101000001
011011000000110
000100100101110
010000010011000
011111001000110
000000000000000
001111001110111
011110000100101
001111001010101
000001010000111
010110100011010
001011110101111
000010010000110
011011110011101
000000000000000
000000000000000
000000000000000
000000000000000
000000000000000
000000000000000
000000000000000
000000000000000
000000000000000
000000000000000
000000000000000
000000000000000
000000000000000
000000000000000
000000000000000
000000000000000
000000101110110
010110111101001
010001100100010
010000011111110
010011100100000
011001111000100
000010011101100
000000000000000
011000110100011
000001011001011
001110001010110
011101000000100
001110000110100
000000001100110
010101011111001
001011110101111
000001001100101
011010101111100
000000000000000
000000000000000
000000000000000
000000000000000
000000000000000
000000000000000
000000000000000
000000000000000
000000000000000
000000000000000
000000000000000
000000000000000
000000000000000
000000000000000
000000000000000
000000000000000
011110100010011
010100110100111
001110011011110
001110010111100
010001011111101
000000000000000
010001011111101
011000110100011
000001011001011
001110001010110
011101000000100
001110000110100
000000001100110
010101011111001
001011110101111
000001001100101
011010101111100
000000000000000
000000000000000
000000000000000
000000000000000
000000000000000
000000000000000
000000000000000
000000000000000
000000000000000
000000000000000
000000000000000
000000000000000
000000000000000
000000000000000
000000000000000
000000000000000
011110100010011
010100110100111
001110011011110
001110010111100
000000000000000
001100010011100
001100001111010
001111010111011
010110101100001
000000010101010
001101000110101
011100111100011
001101000010011
100000001000101
010100011011000
001010110001110
000001001100101
011010101111100
000000000000000
000000000000000
000000000000000
000000000000000
000000000000000
000000000000000
000000000000000
000000000000000
000000000000000
000000000000000
000000000000000
000000000000000
000000000000000
000000000000000
000000000000000
000000000000000
011011010110000
010001101000100
000000000000000
011000001001101
001110011100001
001010001011010
001010000111000
001101001111001
010101101000000
011111001101000
001100000010100
011011111000010
001100111110010
011111000100100
010100011011000
001001101101101
000000001000100
011001101011011
000000000000000
000000000000000
000000000000000
000000000000000
000000000000000
000000000000000
000000000000000
000000000000000
000000000000000
000000000000000
000000000000000
000000000000000
000000000000000
000000000000000
000000000000000
000000000000000
000000000000000
000000000000000
000000000000000
010110000001011
001100010111110
001000000011000
001000111110110
001100001011000
010011100011101
011110001000111
001010111010010
011010110100001
001011111010001
011111000100100
010011010110111
001001101101101
000000001000100
011001101011011
000000000000000
000000000000000
000000000000000
000000000000000
000000000000000
000000000000000
000000000000000
000000000000000
000000000000000
000000000000000
000000000000000
000000000000000
000000000000000
000000000000000
000000000000000
000000000000000
000000000000000
000000000000000
000000000000000
010011110101000
001001001011011
000101110110101
000110110110100
001010000010110
010010011111100
011101000100110
001001110110001
011001110000000
001010110110000
011110000000011
010010010010110
001000101001100
100000000100011
011000100111010
000000000000000
000000000000000
000000000000000
000000000000000
000000000000000
000000000000000
000000000000000
000000000000000
000000000000000
000000000000000
000000000000000
000000000000000
000000000000000
000000000000000
000000000000000
000000000000000
000000000000000
000000000000000
011111101010110
010000101000101
000111000011001
000011101110011
000100101110010
001000111010100
010000010111010
011011111100100
001000110010000
011000101111110
001001110001111
011101111100010
010010010010110
001000101001100
100000000100011
011000100111010
000000000000000
000000000000000
000000000000000
000000000000000
000000000000000
000000000000000
000000000000000
000000000000000
000000000000000
000000000000000
000000000000000
000000000000000
000000000000000
000000000000000
000000000000000
000000000000000
000000000000000
000000000000000
011011011010010
001101011100010
000101111010111
000001100110001
000010100110000
000111110110011
001111010011001
011010111000011
000111101101111
010111101011101
001000101101110
011100111000001
010001001110101
000111100101011
011111000000010
010111100011001
000000000000000
000000000000000
000000000000000
000000000000000
000000000000000
000000000000000
000000000000000
000000000000000
000000000000000
000000000000000
000000000000000
000000000000000
000000000000000
000000000000000
000000000000000
000000000000000
000000000000000
000000000000000
011000001101111
001010010011110
000010101110100
100000011101111
000000011101110
000101101110001
001110001111000
011001110100010
000110101001110
010110100111100
001000101101110
011100111000001
010000001010100
000110100001010
011111000000010
010111100011001
000000000000000
000000000000000
000000000000000
000000000000000
000000000000000
000000000000000
000000000000000
000000000000000
000000000000000
000000000000000
000000000000000
000000000000000
000000000000000
000000000000000
000000000000000
000000000000000
000000000000000
000000000000000
010101000001100
001000001011100
000000100110010
011110010101101
011111010101100
000011100101111
001100000110110
011000110000001
000101100101101
010101100011011
000111101001101
011011110100000
010000001010100
000110100001010
011110111100001
010110011111000
000000000000000
000000000000000
000000000000000
000000000000000
000000000000000
000000000000000
000000000000000
000000000000000
000000000000000
000000000000000
000000000000000
000000000000000
000000000000000
000000000000000
000000000000000
000000000000000
000000000000000
000000000000000
010010110101001
000101111111001
011110011001111
011100001101011
011101001101010
000010100001110
001011000010101
010110101011110
000100100001100
010100011111010
000110100101100
011010110011110
001111000110011
000101011101001
011110111100001
010110011111000
000000000000000
000000000000000
000000000000000
000000000000000
000000000000000
000000000000000
000000000000000
000000000000000
000000000000000
000000000000000
000000000000000
000000000000000
000000000000000
000000000000000
000000000000000
000000000000000
000000000000000
000000000000000
001111101000110
000010110010110
011100010001101
011010000101001
011100001001001
000000011001100
001001111010011
010101100111101
000011011101011
010011011011001
000101100001011
011001101111101
001110000010010
000101011101001
011101111000000
010110011111000
000000000000000
011101111000000
010101011010111
000000000000000
000000000000000
000000000000000
000000000000000
000000000000000
000000000000000
000000000000000
000000000000000
000000000000000
000000000000000
000000000000000
000000000000000
000000000000000
000000000000000
000000000000000
001100011100011
000000101010100
011010001001011
011000111100111
011010000000111
100000010101011
001000110110010
010100100011100
000010011001010
010010010111000
000100011101010
011001101111101
001110000010010
000100011001000
000000000000000
001101111110001
000011010100111
011100110111110
010101011010111
000000000000000
000000000000000
000000000000000
000000000000000
000000000000000
000000000000000
000000000000000
000000000000000
000000000000000
000000000000000
000000000000000
000000000000000
000000000000000
000000000000000
000000000000000
001001010000000
011110011110001
010111111101000
010110110100101
011000111000101
011110001101001
000110101110000
010011011111011
000000010001000
010001010010111
000011011001001
011000101011100
000000000000000
000011011001001
010111100111011
001100111010000
000011010100111
011100110111110
000000000000000
000000000000000
000000000000000
000000000000000
000000000000000
000000000000000
000000000000000
000000000000000
000000000000000
000000000000000
000000000000000
000000000000000
000000000000000
000000000000000
000000000000000
000000000000000
000110000111100
011011010001110
010101110100110
010100101100011
010110110000011
011101001001000
000101101001111
010001010111001
100000001100111
010000001110110
000000000000000
011111001000110
010000001110110
000010010101000
010111100111011
001100111010000
000010010000110
011011110011101
000000000000000
000000000000000
000000000000000
000000000000000
000000000000000
000000000000000
000000000000000
000000000000000
000000000000000
000000000000000
000000000000000
000000000000000
000000000000000
000000000000000
000000000000000
000000000000000
000011111011001
011001001001100
010011101100100
010001100000000
010100101000001
011011000000110
000100100101110
010000010011000
000000000000000
000010011101100
001111001110111
011110000100101
001111001010101
000001010000111
010110100011010
001011110101111
000010010000110
011011110011101
000000000000000
000000000000000
000000000000000
000000000000000
000000000000000
000000000000000
000000000000000
000000000000000
000000000000000
000000000000000
000000000000000
000000000000000
000000000000000
000000000000000
000000000000000
000000000000000
000000101110110
010110111101001
010000100000001
001111011011101
010011100100000
011001111000100
000000000000000
011001111000100
000010011101100
001111001110111
011110000100101
001111001010101
000001010000111
010110100011010
001011110101111
000010010000110
011011110011101
000000000000000
000000000000000
000000000000000
000000000000000
000000000000000
000000000000000
000000000000000
000000000000000
000000000000000
000000000000000
000000000000000
000000000000000
000000000000000
000000000000000
000000000000000
000000000000000
000000101110110
010110111101001
010000100000001
001111011011101
010011100100000
000000000000000
001101010011011
010001011111101
011000110100011
000001011001011
001110001010110
011101000000100
001110000110100
000000001100110
010101011111001
001011110101111
000001001100101
011010101111100
000000000000000
000000000000000
000000000000000
000000000000000
000000000000000
000000000000000
000000000000000
000000000000000
000000000000000
000000000000000
000000000000000
000000000000000
000000000000000
000000000000000
000000000000000
000000000000000
011110100010011
010011110000110
001110011011110
000000000000000
010001101000100
001100010011100
001011001011001
001111010111011
010110101100001
000000010101010
001101000110101
011100111100011
001101000010011
100000001000101
010100011011000
001010110001110
000001001100101
011010101111100
000000000000000
000000000000000
000000000000000
000000000000000
000000000000000
000000000000000
000000000000000
000000000000000
000000000000000
000000000000000
000000000000000
000000000000000
000000000000000
000000000000000
000000000000000
000000000000000
011011010110000
000000000000000
000000000000000
011000001001101
001110011100001
001010001011010
001010000111000
001101001111001
010101101000000
011111001101000
001100000010100
011011111000010
001100111110010
011111000100100
010100011011000
001001101101101
000000001000100
011001101011011
000000000000000
000000000000000
000000000000000
000000000000000
000000000000000
000000000000000
000000000000000
000000000000000
000000000000000
000000000000000
000000000000000
000000000000000
000000000000000
000000000000000
000000000000000
000000000000000
000000000000000
000000000000000
000000000000000
010101111101010
001100010111110
000111111110111
001000111110110
001100001011000
010011100011101
011110001000111
001010111010010
011010110100001
001011111010001
011111000100100
010011010110111
001001101101101
000000001000100
011001101011011
000000000000000
000000000000000
000000000000000
000000000000000
000000000000000
000000000000000
000000000000000
000000000000000
000000000000000
000000000000000
000000000000000
000000000000000
000000000000000
000000000000000
000000000000000
000000000000000
000000000000000
000000000000000
000000000000000
010011110101000
001001001011011
000101110110101
000110110110100
001010000010110
010010011111100
011101000100110
001001110110001
011001110000000
001010110110000
011110000000011
010010010010110
001000101001100
100000000100011
011000100111010
000000000000000
000000000000000
000000000000000
000000000000000
000000000000000
000000000000000
000000000000000
000000000000000
000000000000000
000000000000000
000000000000000
000000000000000
000000000000000
000000000000000
000000000000000
000000000000000
000000000000000
000000000000000
011110100110101
010000101000101
000111000011001
000011101110011
000100101110010
001000111010100
010000010111010
011011111100100
001000110010000
011000101111110
001001110001111
011101111100010
010010010010110
000111100101011
100000000100011
011000100111010
000000000000000
000000000000000
000000000000000
000000000000000
000000000000000
000000000000000
000000000000000
000000000000000
000000000000000
000000000000000
000000000000000
000000000000000
000000000000000
000000000000000
000000000000000
000000000000000
000000000000000
000000000000000
011011011010010
001101011100010
000100110110110
000001100110001
000010100110000
000111110110011
001111010011001
011010111000011
000111101101111
010111101011101
001000101101110
011100111000001
010001001110101
000111100101011
011111000000010
010111100011001
000000000000000
000000000000000
000000000000000
000000000000000
000000000000000
000000000000000
000000000000000
000000000000000
000000000000000
000000000000000
000000000000000
000000000000000
000000000000000
000000000000000
000000000000000
000000000000000
000000000000000
000000000000000
011000001101111
001010010011110
000010101110100
100000011101111
000000011101110
000101101110001
001101001010111
011001110100010
000110101001110
010110100111100
001000101101110
011100111000001
010000001010100
000110100001010
011111000000010
010111100011001
000000000000000
000000000000000
000000000000000
000000000000000
000000000000000
000000000000000
000000000000000
000000000000000
000000000000000
000000000000000
000000000000000
000000000000000
000000000000000
000000000000000
000000000000000
000000000000000
000000000000000
000000000000000
010101000001100
001000001011100
000000100110010
011110010101101
011111010101100
000011100101111
001100000110110
011000110000001
000101100101101
010101100011011
000111101001101
011011110100000
010000001010100
000110100001010
011110111100001
010110011111000
000000000000000
000000000000000
000000000000000
000000000000000
000000000000000
000000000000000
000000000000000
000000000000000
000000000000000
000000000000000
000000000000000
000000000000000
000000000000000
000000000000000
000000000000000
000000000000000
000000000000000
000000000000000
010010110101001
000101111111001
011110011001111
011100001101011
011101001101010
000010100001110
001011000010101
010110101011110
000100100001100
010100011111010
000110100101100
011010110011110
001111000110011
000101011101001
011110111100001
010110011111000
000000000000000
000000000000000
010110011111000
000000000000000
000000000000000
000000000000000
000000000000000
000000000000000
000000000000000
000000000000000
000000000000000
000000000000000
000000000000000
000000000000000
000000000000000
000000000000000
000000000000000
000000000000000
001111101000110
000010110010110
011100010001101
011010000101001
011100001001001
000000011001100
001001111010011
010101100111101
000011011101011
010011011011001
000101100001011
011001101111101
001110000010010
000101011101001
011101111000000
000000000000000
000100011001000
011101111000000
010101011010111
000000000000000
000000000000000
000000000000000
000000000000000
000000000000000
000000000000000
000000000000000
000000000000000
000000000000000
000000000000000
000000000000000
000000000000000
000000000000000
000000000000000
000000000000000
001100011100011
100000100110011
011010001001011
011000111100111
011010000000111
100000010101011
001000110110010
010100100011100
000010011001010
010010010111000
000100011101010
011001101111101
001110000010010
000000000000000
011000101011100
001101111110001
000011010100111
011100110111110
010101011010111
000000000000000
000000000000000
000000000000000
000000000000000
000000000000000
000000000000000
000000000000000
000000000000000
000000000000000
000000000000000
000000000000000
000000000000000
000000000000000
000000000000000
000000000000000
001001010000000
011110011110001
010111111101000
010101110000100
011000111000101
011110001101001
000110101110000
010011011111011
000000010001000
010001010010111
000011011001001
000000000000000
010000001110110
000010010101000
010111100111011
001100111010000
000011010100111
011100110111110
000000000000000
000000000000000
000000000000000
000000000000000
000000000000000
000000000000000
000000000000000
000000000000000
000000000000000
000000000000000
000000000000000
000000000000000
000000000000000
000000000000000
000000000000000
000000000000000
000110000111100
011011010001110
010101110100110
010011101000010
010110110000011
011100000100111
000101101001111
010001010111001
100000001100111
000000000000000
010000010011000
011111001000110
010000001110110
000010010101000
010110100011010
001100111010000
000010010000110
011011110011101
000000000000000
000000000000000
000000000000000
000000000000000
000000000000000
000000000000000
000000000000000
000000000000000
000000000000000
000000000000000
000000000000000
000000000000000
000000000000000
000000000000000
000000000000000
000000000000000
000011111011001
011001001001100
010011101100100
010001100000000
010100101000001
011011000000110
000100100101110
000000000000000
000100100101110
010000010011000
011111001000110
010000001110110
000010010101000
010110100011010
001100111010000
000010010000110
011011110011101
000000000000000
000000000000000
000000000000000
000000000000000
000000000000000
000000000000000
000000000000000
000000000000000
000000000000000
000000000000000
000000000000000
000000000000000
000000000000000
000000000000000
000000000000000
000000000000000
000011111011001
011001001001100
010011101100100
010001100000000
010100101000001
011011000000110
000000000000000
010011100100000
011001111000100
000010011101100
001111001110111
011110000100101
001111001010101
000001010000111
010110100011010
001011110101111
000010010000110
011011110011101
000000000000000
000000000000000
000000000000000
000000000000000
000000000000000
000000000000000
000000000000000
000000000000000
000000000000000
000000000000000
000000000000000
000000000000000
000000000000000
000000000000000
000000000000000
000000000000000
000000101110110
010110111101001
010000100000001
001111011011101
000000000000000
001110011011110
001101010011011
010001011111101
011000110100011
000001011001011
001110001010110
011101000000100
001110000110100
000000001100110
010101011111001
001011110101111
000001001100101
011010101111100
000000000000000
000000000000000
000000000000000
000000000000000
000000000000000
000000000000000
000000000000000
000000000000000
000000000000000
000000000000000
000000000000000
000000000000000
000000000000000
000000000000000
000000000000000
000000000000000
011110100010011
010011110000110
000000000000000
011011010110000
010001101000100
001100010011100
001011001011001
001111010111011
010110101100001
000000010101010
001101000110101
011100111100011
001101000010011
100000001000101
010100011011000
001010110001110
000001001100101
011010101111100
000000000000000
000000000000000
000000000000000
000000000000000
000000000000000
000000000000000
000000000000000
000000000000000
000000000000000
000000000000000
000000000000000
000000000000000
000000000000000
000000000000000
000000000000000
000000000000000
000000000000000
000000000000000
000000000000000
011000001001101
001110011100001
001010001011010
001001000010111
001101001111001
010101101000000
011111001101000
001100000010100
011011111000010
001100111110010
011111000100100
010100011011000
001001101101101
000000001000100
011001101011011
000000000000000
000000000000000
000000000000000
000000000000000
000000000000000
000000000000000
000000000000000
000000000000000
000000000000000
000000000000000
000000000000000
000000000000000
000000000000000
000000000000000
000000000000000
000000000000000
000000000000000
000000000000000
000000000000000
010101111101010
001100010111110
000111111110111
001000111110110
001100001011000
010011100011101
011110001000111
001010111010010
011010110100001
001011111010001
011111000100100
010011010110111
001001101101101
000000001000100
011001101011011
000000000000000
000000000000000
000000000000000
000000000000000
000000000000000
000000000000000
000000000000000
000000000000000
000000000000000
000000000000000
000000000000000
000000000000000
000000000000000
000000000000000
000000000000000
000000000000000
000000000000000
000000000000000
000000000000000
010011110101000
001001001011011
000101110110101
000110110110100
001010000010110
010010011111100
011101000100110
001001110110001
011001110000000
001010110110000
011110000000011
010010010010110
001000101001100
100000000100011
011000100111010
000000000000000
000000000000000
000000000000000
000000000000000
000000000000000
000000000000000
000000000000000
000000000000000
000000000000000
000000000000000
000000000000000
000000000000000
000000000000000
000000000000000
000000000000000
000000000000000
000000000000000
000000000000000
011110100110101
010000101000101
000111000011001
000011101110011
000100101110010
001000111010100
010000010111010
011011111100100
001000110010000
011000101111110
001001110001111
011101111100010
010010010010110
000111100101011
100000000100011
011000100111010
000000000000000
000000000000000
000000000000000
000000000000000
000000000000000
000000000000000
000000000000000
000000000000000
000000000000000
000000000000000
000000000000000
000000000000000
000000000000000
000000000000000
000000000000000
000000000000000
000000000000000
000000000000000
011011011010010
001101011100010
000100110110110
000001100110001
000010100110000
000111110110011
001111010011001
011010111000011
000111101101111
010111101011101
001000101101110
011100111000001
010001001110101
000111100101011
011111000000010
010111100011001
000000000000000
000000000000000
000000000000000
000000000000000
000000000000000
000000000000000
000000000000000
000000000000000
000000000000000
000000000000000
000000000000000
000000000000000
000000000000000
000000000000000
000000000000000
000000000000000
000000000000000
000000000000000
011000001101111
001010010011110
000010101110100
100000011101111
000000011101110
000101101110001
001101001010111
011001110100010
000110101001110
010110100111100
000111101001101
011100111000001
010000001010100
000110100001010
011111000000010
010111100011001
000000000000000
000000000000000
000000000000000
000000000000000
000000000000000
000000000000000
000000000000000
000000000000000
000000000000000
000000000000000
000000000000000
000000000000000
000000000000000
000000000000000
000000000000000
000000000000000
000000000000000
000000000000000
010101000001100
000111000111011
000000100110010
011110010101101
011111010101100
000011100101111
001100000110110
011000110000001
000101100101101
010101100011011
000111101001101
011011110100000
010000001010100
000110100001010
011110111100001
010110011111000
000000000000000
000000000000000
000000000000000
000000000000000
000000000000000
000000000000000
000000000000000
000000000000000
000000000000000
000000000000000
000000000000000
000000000000000
000000000000000
000000000000000
000000000000000
000000000000000
000000000000000
000000000000000
010010110101001
000101111111001
011110011001111
011100001101011
011101001101010
000010100001110
001011000010101
010110101011110
000100100001100
010100011111010
000110100101100
011010110011110
001111000110011
000101011101001
011110111100001
010110011111000
000000000000000
011101111000000
010110011111000
000000000000000
000000000000000
000000000000000
000000000000000
000000000000000
000000000000000
000000000000000
000000000000000
000000000000000
000000000000000
000000000000000
000000000000000
000000000000000
000000000000000
000000000000000
001111101000110
000010110010110
011100010001101
011010000101001
011011000101000
000000011001100
001001111010011
010101100111101
000011011101011
010011011011001
000101100001011
011001101111101
001110000010010
000101011101001
000000000000000
001110000010010
000100011001000
011101111000000
010101011010111
000000000000000
000000000000000
000000000000000
000000000000000
000000000000000
000000000000000
000000000000000
000000000000000
000000000000000
000000000000000
000000000000000
000000000000000
000000000000000
000000000000000
000000000000000
001100011100011
100000100110011
011001000101010
010111111000110
011010000000111
100000010101011
001000110110010
010100100011100
000001010101001
010010010111000
000100011101010
011001101111101
000000000000000
000011011001001
011000101011100
001101111110001
000011010100111
011100110111110
010101011010111
000000000000000
000000000000000
000000000000000
000000000000000
000000000000000
000000000000000
000000000000000
000000000000000
000000000000000
000000000000000
000000000000000
000000000000000
000000000000000
000000000000000
000000000000000
001001010000000
011110011110001
010111111101000
010101110000100
011000111000101
011110001101001
000110101110000
010011011111011
000000010001000
010001010010111
000000000000000
100000001100111
010000001110110
000010010101000
010111100111011
001100111010000
000011010100111
011100110111110
000000000000000
000000000000000
000000000000000
000000000000000
000000000000000
000000000000000
000000000000000
000000000000000
000000000000000
000000000000000
000000000000000
000000000000000
000000000000000
000000000000000
000000000000000
000000000000000
000110000111100
011011010001110
010101110100110
010011101000010
010110110000011
011100000100111
000101101001111
010001010111001
000000000000000
010001010111001
100000001100111
010000001110110
000010010101000
010111100111011
001100111010000
000011010100111
011100110111110
000000000000000
000000000000000
000000000000000
000000000000000
000000000000000
000000000000000
000000000000000
000000000000000
000000000000000
000000000000000
000000000000000
000000000000000
000000000000000
000000000000000
000000000000000
000000000000000
000110000111100
011011010001110
010101110100110
010011101000010
010110110000011
011100000100111
000101101001111
000000000000000
011011000000110
000100100101110
010000010011000
011111001000110
001111001010101
000010010101000
010110100011010
001100111010000
000010010000110
011011110011101
000000000000000
000000000000000
000000000000000
000000000000000
000000000000000
000000000000000
000000000000000
000000000000000
000000000000000
000000000000000
000000000000000
000000000000000
000000000000000
000000000000000
000000000000000
000000000000000
000011111011001
011000000101011
010011101100100
010001100000000
010100101000001
000000000000000
001111011011101
010010100011110
011001111000100
000010011101100
001111001110111
011110000100101
001111001010101
000001010000111
010110100011010
001011110101111
000010010000110
011011110011101
000000000000000
000000000000000
000000000000000
000000000000000
000000000000000
000000000000000
000000000000000
000000000000000
000000000000000
000000000000000
000000000000000
000000000000000
000000000000000
000000000000000
000000000000000
000000000000000
000000101110110
010110111101001
010000100000001
000000000000000
010011110000110
001110011011110
001101010011011
010001011111101
011000110100011
000001011001011
001110001010110
011101000000100
001110000110100
000000001100110
010101011111001
001010110001110
000001001100101
011010101111100
000000000000000
000000000000000
000000000000000
000000000000000
000000000000000
000000000000000
000000000000000
000000000000000
000000000000000
000000000000000
000000000000000
000000000000000
000000000000000
000000000000000
000000000000000
000000000000000
011110100010011
000000000000000
000000000000000
011011010110000
010001101000100
001100010011100
001011001011001
001111010111011
010110101100001
000000010101010
001101000110101
011100111100011
001101000010011
100000001000101
010100011011000
001010110001110
000001001100101
011010101111100
000000000000000
000000000000000
000000000000000
000000000000000
000000000000000
000000000000000
000000000000000
000000000000000
000000000000000
000000000000000
000000000000000
000000000000000
000000000000000
000000000000000
000000000000000
000000000000000
000000000000000
000000000000000
000000000000000
011000001001101
001110011100001
001010001011010
001001000010111
001101001111001
010101101000000
011111001101000
001011111110011
011011111000010
001100111110010
011111000100100
010100011011000
001001101101101
000000001000100
011001101011011
000000000000000
000000000000000
000000000000000
000000000000000
000000000000000
000000000000000
000000000000000
000000000000000
000000000000000
000000000000000
000000000000000
000000000000000
000000000000000
000000000000000
000000000000000
000000000000000
000000000000000
000000000000000
000000000000000
010101111101010
001100010111110
000111111110111
000111111010101
001100001011000
010011100011101
011110001000111
001010111010010
011010110100001
001011111010001
011111000100100
010011010110111
001001101101101
000000001000100
011001101011011
000000000000000
000000000000000
000000000000000
000000000000000
000000000000000
000000000000000
000000000000000
000000000000000
000000000000000
000000000000000
000000000000000
000000000000000
000000000000000
000000000000000
000000000000000
000000000000000
000000000000000
000000000000000
000000000000000
010010110000111
001001001011011
000101110110101
000110110110100
001010000010110
010010011111100
011101000100110
001001110110001
011001110000000
001010110110000
011110000000011
010010010010110
001000101001100
100000000100011
011000100111010
000000000000000
000000000000000
000000000000000
000000000000000
000000000000000
000000000000000
000000000000000
000000000000000
000000000000000
000000000000000
000000000000000
000000000000000
000000000000000
000000000000000
000000000000000
000000000000000
000000000000000
000000000000000
011110100110101
010000101000101
000111000011001
000011101110011
000100101110010
001000111010100
010000010111010
011011111100100
001000110010000
011000101111110
001001110001111
011101111100010
010010010010110
000111100101011
100000000100011
011000100111010
000000000000000
000000000000000
000000000000000
000000000000000
000000000000000
000000000000000
000000000000000
000000000000000
000000000000000
000000000000000
000000000000000
000000000000000
000000000000000
000000000000000
000000000000000
000000000000000
000000000000000
000000000000000
011011011010010
001101011100010
000100110110110
000001100110001
000010100110000
000111110110011
001111010011001
011010111000011
000111101101111
010111101011101
001000101101110
011100111000001
010001001110101
000111100101011
011111000000010
010111100011001
000000000000000
000000000000000
000000000000000
000000000000000
000000000000000
000000000000000
000000000000000
000000000000000
000000000000000
000000000000000
000000000000000
000000000000000
000000000000000
000000000000000
000000000000000
000000000000000
000000000000000
000000000000000
011000001101111
001010010011110
000010101110100
100000011101111
000000011101110
000101101110001
001101001010111
011001110100010
000110101001110
010110100111100
000111101001101
011100111000001
010000001010100
000110100001010
011111000000010
010111100011001
000000000000000
000000000000000
000000000000000
000000000000000
000000000000000
000000000000000
000000000000000
000000000000000
000000000000000
000000000000000
000000000000000
000000000000000
000000000000000
000000000000000
000000000000000
000000000000000
000000000000000
000000000000000
010101000001100
000111000111011
000000100110010
011110010101101
011111010101100
000011100101111
001100000110110
011000110000001
000101100101101
010101100011011
000111101001101
011011110100000
010000001010100
000110100001010
011110111100001
010110011111000
000000000000000
000000000000000
010110011111000
000000000000000
000000000000000
000000000000000
000000000000000
000000000000000
000000000000000
000000000000000
000000000000000
000000000000000
000000000000000
000000000000000
000000000000000
000000000000000
000000000000000
000000000000000
010010110101001
000101111111001
011110011001111
011100001101011
011101001101010
000010100001110
001011000010101
010110101011110
000100100001100
010100011111010
000110100101100
011010110011110
001111000110011
000101011101001
011110111100001
000000000000000
000101011101001
011101111000000
010110011111000
000000000000000
000000000000000
000000000000000
000000000000000
000000000000000
000000000000000
000000000000000
000000000000000
000000000000000
000000000000000
000000000000000
000000000000000
000000000000000
000000000000000
000000000000000
001111101000110
000010110010110
011100010001101
011001000001000
011011000101000
000000011001100
001001111010011
010101100111101
000011011101011
010011011011001
000101100001011
011001101111101
001110000010010
000000000000000
011001101111101
001110000010010
000100011001000
011101111000000
010101011010111
000000000000000
000000000000000
000000000000000
000000000000000
000000000000000
000000000000000
000000000000000
000000000000000
000000000000000
000000000000000
000000000000000
000000000000000
000000000000000
000000000000000
000000000000000
001100011100011
100000100110011
011001000101010
010111111000110
011010000000111
100000010101011
001000110110010
010100100011100
000001010101001
010010010111000
000100011101010
000000000000000
010001010010111
000011011001001
011000101011100
001101111110001
000011010100111
011100110111110
010101011010111
000000000000000
000000000000000
000000000000000
000000000000000
000000000000000
000000000000000
000000000000000
000000000000000
000000000000000
000000000000000
000000000000000
000000000000000
000000000000000
000000000000000
000000000000000
001001010000000
011110011110001
010111111101000
010101110000100
011000111000101
011110001101001
000110101110000
010011011111011
000000010001000
000000000000000
000000010001000
010001010010111
000011011001001
011000101011100
001101111110001
000011010100111
011100110111110
010101011010111
000000000000000
000000000000000
000000000000000
000000000000000
000000000000000
000000000000000
000000000000000
000000000000000
000000000000000
000000000000000
000000000000000
000000000000000
000000000000000
000000000000000
000000000000000
001001010000000
011110011110001
010111111101000
010101110000100
011000111000101
011110001101001
000110101110000
010011011111011
000000000000000
000101101001111
010001010111001
100000001100111
010000001110110
000010010101000
010111100111011
001100111010000
000011010100111
011100110111110
000000000000000
000000000000000
000000000000000
000000000000000
000000000000000
000000000000000
000000000000000
000000000000000
000000000000000
000000000000000
000000000000000
000000000000000
000000000000000
000000000000000
000000000000000
000000000000000
000110000111100
011011010001110
010101110100110
010011101000010
010110110000011
011100000100111
000000000000000
010100101000001
011011000000110
000100100101110
010000010011000
011111001000110
001111001010101
000010010101000
010110100011010
001100111010000
000010010000110
011011110011101
000000000000000
000000000000000
000000000000000
000000000000000
000000000000000
000000000000000
000000000000000
000000000000000
000000000000000
000000000000000
000000000000000
000000000000000
000000000000000
000000000000000
000000000000000
000000000000000
000011111011001
011000000101011
010010101000011
010001100000000
000000000000000
010000100000001
001111011011101
010010100011110
011001111000100
000010011101100
001111001110111
011110000100101
001111001010101
000001010000111
010110100011010
001011110101111
000010010000110
011011110011101
000000000000000
000000000000000
000000000000000
000000000000000
000000000000000
000000000000000
000000000000000
000000000000000
000000000000000
000000000000000
000000000000000
000000000000000
000000000000000
000000000000000
000000000000000
000000000000000
000000101110110
010110111101001
000000000000000
011110100010011
010011110000110
001110011011110
001101010011011
010001011111101
011000110100011
000001011001011
001110001010110
011101000000100
001110000110100
000000001100110
010101011111001
001010110001110
000001001100101
011010101111100
000000000000000
000000000000000
000000000000000
000000000000000
000000000000000
000000000000000
000000000000000
000000000000000
000000000000000
000000000000000
000000000000000
000000000000000
000000000000000
000000000000000
000000000000000
000000000000000
000000000000000
000000000000000
000000000000000
011011010110000
010001101000100
001100010011100
001011001011001
001111010111011
010110101100001
000000010101010
001101000110101
011100111100011
001101000010011
100000001000101
010100011011000
001010110001110
000001001100101
011010101111100
000000000000000
000000000000000
000000000000000
000000000000000
000000000000000
000000000000000
000000000000000
000000000000000
000000000000000
000000000000000
000000000000000
000000000000000
000000000000000
000000000000000
000000000000000
000000000000000
000000000000000
000000000000000
000000000000000
011000001001101
001110011100001
001001000111001
001001000010111
001101001111001
010101101000000
011111001101000
001011111110011
011011111000010
001100111110010
011111000100100
010100011011000
001001101101101
000000001000100
011001101011011
000000000000000
000000000000000
000000000000000
000000000000000
000000000000000
000000000000000
000000000000000
000000000000000
000000000000000
000000000000000
000000000000000
000000000000000
000000000000000
000000000000000
000000000000000
000000000000000
000000000000000
000000000000000
000000000000000
010101111101010
001100010111110
000111111110111
000111111010101
001100001011000
010011100011101
011110001000111
001010111010010
011010110100001
001011111010001
011111000100100
010011010110111
001001101101101
000000001000100
011001101011011
000000000000000
000000000000000
000000000000000
000000000000000
000000000000000
000000000000000
000000000000000
000000000000000
000000000000000
000000000000000
000000000000000
000000000000000
000000000000000
000000000000000
000000000000000
000000000000000
000000000000000
000000000000000
000000000000000
010010110000111
001001001011011
000101110110101
000110110110100
001010000010110
010010011111100
011101000100110
001001110110001
011001110000000
001010110110000
011110000000011
010010010010110
001000101001100
100000000100011
011000100111010
000000000000000
000000000000000
000000000000000
000000000000000
000000000000000
000000000000000
000000000000000
000000000000000
000000000000000
000000000000000
000000000000000
000000000000000
000000000000000
000000000000000
000000000000000
000000000000000
000000000000000
000000000000000
011110100110101
010000101000101
000111000011001
000011101110011
000100101110010
001000111010100
010000010111010
011011111100100
001000110010000
011000101111110
001001110001111
011101111100010
010010010010110
000111100101011
100000000100011
011000100111010
000000000000000
000000000000000
000000000000000
000000000000000
000000000000000
000000000000000
000000000000000
000000000000000
000000000000000
000000000000000
000000000000000
000000000000000
000000000000000
000000000000000
000000000000000
000000000000000
000000000000000
000000000000000
011011011010010
001101011100010
000100110110110
000001100110001
000010100110000
000111110110011
001111010011001
011010111000011
000111101101111
010111101011101
001000101101110
011100111000001
010001001110101
000111100101011
011111000000010
010111100011001
000000000000000
000000000000000
000000000000000
000000000000000
000000000000000
000000000000000
000000000000000
000000000000000
000000000000000
000000000000000
000000000000000
000000000000000
000000000000000
000000000000000
000000000000000
000000000000000
000000000000000
000000000000000
011000001101111
001010010011110
000010101110100
100000011101111
000000011101110
000101101110001
001101001010111
011001110100010
000110101001110
010110100111100
000111101001101
011100111000001
010000001010100
000110100001010
011111000000010
010111100011001
000000000000000
000000000000000
000000000000000
000000000000000
000000000000000
000000000000000
000000000000000
000000000000000
000000000000000
000000000000000
000000000000000
000000000000000
000000000000000
000000000000000
000000000000000
000000000000000
000000000000000
000000000000000
010101000001100
000111000111011
100000100010001
011110010101101
011111010101100
000011100101111
001100000110110
010111101100000
000101100101101
010101100011011
000111101001101
011011110100000
010000001010100
000110100001010
011110111100001
010110011111000
000000000000000
011110111100001
010110011111000
000000000000000
000000000000000
000000000000000
000000000000000
000000000000000
000000000000000
000000000000000
000000000000000
000000000000000
000000000000000
000000000000000
000000000000000
000000000000000
000000000000000
000000000000000
010010110101001
000101111111001
011110011001111
011011001001010
011101001101010
000010100001110
001010111110100
010110101011110
000100100001100
010100011111010
000110100101100
011010110011110
001111000110011
000101011101001
000000000000000
001110000010010
000101011101001
011101111000000
010101011010111
000000000000000
000000000000000
000000000000000
000000000000000
000000000000000
000000000000000
000000000000000
000000000000000
000000000000000
000000000000000
000000000000000
000000000000000
000000000000000
000000000000000
000000000000000
001111101000110
000010110010110
011100010001101
011001000001000
011011000101000
000000011001100
001001111010011
010101100111101
000010011001010
010011011011001
000101100001011
011001101111101
000000000000000
000100011101010
011001101111101
001110000010010
000100011001000
011101111000000
010101011010111
000000000000000
000000000000000
000000000000000
000000000000000
000000000000000
000000000000000
000000000000000
000000000000000
000000000000000
000000000000000
000000000000000
000000000000000
000000000000000
000000000000000
000000000000000
001100011100011
100000100110011
011001000101010
010111111000110
011010000000111
011111010001010
001000110110010
010100100011100
000001010101001
010010010111000
000000000000000
010010010111000
000100011101010
011001101111101
001110000010010
000100011001000
011100110111110
010101011010111
000000000000000
000000000000000
000000000000000
000000000000000
000000000000000
000000000000000
000000000000000
000000000000000
000000000000000
000000000000000
000000000000000
000000000000000
000000000000000
000000000000000
000000000000000
001011011000010
100000100110011
011001000101010
010111111000110
011001111100110
011111010001010
001000110110010
010100100011100
000001010101001
000000000000000
010011011111011
000000010001000
010001010010111
000011011001001
011000101011100
001101111110001
000011010100111
011100110111110
010101011010111
000000000000000
000000000000000
000000000000000
000000000000000
000000000000000
000000000000000
000000000000000
000000000000000
000000000000000
000000000000000
000000000000000
000000000000000
000000000000000
000000000000000
000000000000000
001000001111110
011101011010000
010111111101000
010101110000100
011000111000101
011110001101001
000110101110000
000000000000000
011100000100111
000101101001111
010001010111001
100000001100111
010000001110110
000010010101000
010111100111011
001100111010000
000011010100111
011100110111110
000000000000000
000000000000000
000000000000000
000000000000000
000000000000000
000000000000000
000000000000000
000000000000000
000000000000000
000000000000000
000000000000000
000000000000000
000000000000000
000000000000000
000000000000000
000000000000000
000101000011011
011011010001110
010101110100110
010011101000010
010110110000011
000000000000000
010001100000000
010100101000001
011011000000110
000100100101110
010000010011000
011111001000110
001111001010101
000010010101000
010110100011010
001100111010000
000010010000110
011011110011101
000000000000000
000000000000000
000000000000000
000000000000000
000000000000000
000000000000000
000000000000000
000000000000000
000000000000000
000000000000000
000000000000000
000000000000000
000000000000000
000000000000000
000000000000000
000000000000000
000011111011001
011000000101011
010010101000011
000000000000000
010110111101001
010000100000001
001111011011101
010010100011110
011001111000100
000010011101100
001111001110111
011110000100101
001111001010101
000001010000111
010110100011010
001011110101111
000010010000110
011011110011101
000000000000000
000000000000000
000000000000000
000000000000000
000000000000000
000000000000000
000000000000000
000000000000000
000000000000000
000000000000000
000000000000000
000000000000000
000000000000000
000000000000000
000000000000000
000000000000000
000000101110110
000000000000000
000000000000000
011110100010011
010011110000110
001110011011110
001101010011011
010001011111101
011000110100011
000001011001011
001110001010110
011101000000100
001110000110100
000000001100110
010101011111001
001010110001110
000001001100101
011010101111100
000000000000000
000000000000000
000000000000000
000000000000000
000000000000000
000000000000000
000000000000000
000000000000000
000000000000000
000000000000000
000000000000000
000000000000000
000000000000000
000000000000000
000000000000000
000000000000000
000000000000000
000000000000000
000000000000000
011011010110000
010001101000100
001100010011100
001011001011001
001111010111011
010110101100001
100000010001001
001101000110101
011100111100011
001101000010011
100000001000101
010100011011000
001010110001110
000001001100101
011010101111100
000000000000000
000000000000000
000000000000000
000000000000000
000000000000000
000000000000000
000000000000000
000000000000000
000000000000000
000000000000000
000000000000000
000000000000000
000000000000000
000000000000000
000000000000000
000000000000000
000000000000000
000000000000000
000000000000000
011000001001101
001110011100001
001001000111001
001001000010111
001101001111001
010101101000000
011111001101000
001011111110011
011011111000010
001100111110010
011111000100100
010100011011000
001001101101101
000000001000100
011001101011011
000000000000000
000000000000000
000000000000000
000000000000000
000000000000000
000000000000000
000000000000000
000000000000000
000000000000000
000000000000000
000000000000000
000000000000000
000000000000000
000000000000000
000000000000000
000000000000000
000000000000000
000000000000000
000000000000000
010101111101010
001100010111110
000111111110111
000111111010101
001100001011000
010011100011101
011110001000111
001010111010010
011010110100001
001011111010001
011111000100100
010011010110111
001001101101101
000000001000100
011001101011011
000000000000000
000000000000000
000000000000000
000000000000000
000000000000000
000000000000000
000000000000000
000000000000000
000000000000000
000000000000000
000000000000000
000000000000000
000000000000000
000000000000000
000000000000000
000000000000000
000000000000000
000000000000000
000000000000000
010010110000111
001001001011011
000101110110101
000101110010011
001010000010110
010010011111100
011101000100110
001001110110001
011001110000000
001010110110000
011110000000011
010010010010110
001000101001100
100000000100011
011000100111010
000000000000000
000000000000000
000000000000000
000000000000000
000000000000000
000000000000000
000000000000000
000000000000000
000000000000000
000000000000000
000000000000000
000000000000000
000000000000000
000000000000000
000000000000000
000000000000000
000000000000000
000000000000000
011110100110101
001111100100100
000111000011001
000011101110011
000100101110010
001000111010100
010000010111010
011011111100100
001000110010000
011000101111110
001001110001111
011101111100010
010010010010110
000111100101011
100000000100011
011000100111010
000000000000000
000000000000000
000000000000000
000000000000000
000000000000000
000000000000000
000000000000000
000000000000000
000000000000000
000000000000000
000000000000000
000000000000000
000000000000000
000000000000000
000000000000000
000000000000000
000000000000000
000000000000000
011011011010010
001101011100010
000100110110110
000001100110001
000010100110000
000111110110011
001111010011001
011010111000011
000111101101111
010111101011101
001000101101110
011100111000001
010001001110101
000111100101011
011111000000010
010111100011001
000000000000000
000000000000000
000000000000000
000000000000000
000000000000000
000000000000000
000000000000000
000000000000000
000000000000000
000000000000000
000000000000000
000000000000000
000000000000000
000000000000000
000000000000000
000000000000000
000000000000000
000000000000000
011000001101111
001010010011110
000010101110100
100000011101111
000000011101110
000101101110001
001101001010111
011001110100010
000110101001110
010110100111100
000111101001101
011100111000001
010000001010100
000110100001010
011111000000010
010111100011001
000000000000000
000000000000000
010110011111000
000000000000000
000000000000000
000000000000000
000000000000000
000000000000000
000000000000000
000000000000000
000000000000000
000000000000000
000000000000000
000000000000000
000000000000000
000000000000000
000000000000000
000000000000000
010101000001100
000111000111011
100000100010001
011101010001100
011111010101100
000011100101111
001100000110110
010111101100000
000101100101101
010101100011011
000111101001101
011011110100000
010000001010100
000110100001010
011110111100001
000000000000000
000101011101001
011101111000000
010110011111000
000000000000000
000000000000000
000000000000000
000000000000000
000000000000000
000000000000000
000000000000000
000000000000000
000000000000000
000000000000000
000000000000000
000000000000000
000000000000000
000000000000000
000000000000000
010010110101001
000100111011000
011110011001111
011011001001010
011101001101010
000010100001110
001010111110100
010110101011110
000100100001100
010100011111010
000110100101100
011010110011110
001111000110011
000000000000000
011001101111101
001110000010010
000101011101001
011101111000000
010101011010111
000000000000000
000000000000000
000000000000000
000000000000000
000000000000000
000000000000000
000000000000000
000000000000000
000000000000000
000000000000000
000000000000000
000000000000000
000000000000000
000000000000000
000000000000000
001111101000110
000010110010110
011100010001101
011001000001000
011011000101000
000000011001100
001001111010011
010101100111101
000010011001010
010011011011001
000101100001011
000000000000000
000101100001011
011001101111101
001110000010010
000101011101001
011101111000000
010101011010111
000000000000000
000000000000000
000000000000000
000000000000000
000000000000000
000000000000000
000000000000000
000000000000000
000000000000000
000000000000000
000000000000000
000000000000000
000000000000000
000000000000000
000000000000000
001110100100101
000010110010110
011100010001101
011001000001000
011011000101000
000000011001100
001001111010011
010101100111101
000010011001010
010011011011001
000000000000000
000001010101001
010010010111000
000100011101010
011001101111101
001110000010010
000100011001000
011100110111110
010101011010111
000000000000000
000000000000000
000000000000000
000000000000000
000000000000000
000000000000000
000000000000000
000000000000000
000000000000000
000000000000000
000000000000000
000000000000000
000000000000000
000000000000000
000000000000000
001011011000010
100000100110011
011001000101010
010111111000110
011001111100110
011111010001010
001000110110010
010100100011100
000000000000000
000110101110000
010010011011010
000000010001000
010001010010111
000011011001001
011000101011100
001101111110001
000011010100111
011100110111110
010101011010111
000000000000000
000000000000000
000000000000000
000000000000000
000000000000000
000000000000000
000000000000000
000000000000000
000000000000000
000000000000000
000000000000000
000000000000000
000000000000000
000000000000000
000000000000000
001000001111110
011101011010000
010111111101000
010101110000100
011000111000101
011110001101001
000000000000000
010110110000011
011100000100111
000101101001111
010001010111001
100000001100111
010000001110110
000010010101000
010111100111011
001100111010000
000011010100111
011011110011101
000000000000000
000000000000000
000000000000000
000000000000000
000000000000000
000000000000000
000000000000000
000000000000000
000000000000000
000000000000000
000000000000000
000000000000000
000000000000000
000000000000000
000000000000000
000000000000000
000101000011011
011011010001110
010101110100110
010011101000010
000000000000000
010010101000011
010001100000000
010100101000001
011011000000110
000011100001101
010000010011000
011111001000110
001111001010101
000010010101000
010110100011010
001100111010000
000010010000110
011011110011101
000000000000000
000000000000000
000000000000000
000000000000000
000000000000000
000000000000000
000000000000000
000000000000000
000000000000000
000000000000000
000000000000000
000000000000000
000000000000000
000000000000000
000000000000000
000000000000000
000010110111000
011000000101011
000000000000000
100000101010101
010110111101001
010000100000001
001111011011101
010010100011110
011001111000100
000010011101100
001111001110111
011110000100101
001110000110100
000001010000111
010110100011010
001011110101111
000010010000110
011011110011101
000000000000000
000000000000000
000000000000000
000000000000000
000000000000000
000000000000000
000000000000000
000000000000000
000000000000000
000000000000000
000000000000000
000000000000000
000000000000000
000000000000000
000000000000000
000000000000000
000000000000000
000000000000000
000000000000000
011110100010011
010011110000110
001110011011110
001101010011011
010001011111101
011000110100011
000001011001011
001110001010110
011101000000100
001110000110100
000000001100110
010101011111001
001010110001110
000001001100101
011010101111100
000000000000000
000000000000000
000000000000000
000000000000000
000000000000000
000000000000000
000000000000000
000000000000000
000000000000000
000000000000000
000000000000000
000000000000000
000000000000000
000000000000000
000000000000000
000000000000000
000000000000000
000000000000000
000000000000000
011011010110000
010001101000100
001100010011100
001011001011001
001111010111011
010110101100001
100000010001001
001101000110101
011100111100011
001101000010011
100000001000101
010100011011000
001010110001110
000001001100101
011010101111100
000000000000000
000000000000000
000000000000000
000000000000000
000000000000000
000000000000000
000000000000000
000000000000000
000000000000000
000000000000000
000000000000000
000000000000000
000000000000000
000000000000000
000000000000000
000000000000000
000000000000000
000000000000000
000000000000000
011000001001101
001110011100001
001001000111001
001001000010111
001101001111001
010101101000000
011111001101000
001011111110011
011011111000010
001100111110010
011111000100100
010100011011000
001001101101101
000000001000100
011001101011011
000000000000000
000000000000000
000000000000000
000000000000000
000000000000000
000000000000000
000000000000000
000000000000000
000000000000000
000000000000000
000000000000000
000000000000000
000000000000000
000000000000000
000000000000000
000000000000000
000000000000000
000000000000000
000000000000000
010101111101010
001011010011101
000111111110111
000111111010101
001011000110111
010011100011101
011110001000111
001010111010010
011010110100001
001011111010001
011111000100100
010011010110111
001001101101101
000000001000100
011001101011011
000000000000000
000000000000000
000000000000000
000000000000000
000000000000000
000000000000000
000000000000000
000000000000000
000000000000000
000000000000000
000000000000000
000000000000000
000000000000000
000000000000000
000000000000000
000000000000000
000000000000000
000000000000000
000000000000000
010010110000111
001001001011011
000101110110101
000101110010011
001010000010110
010010011111100
011101000100110
001001110110001
011001110000000
001010110110000
011110000000011
010010010010110
001000101001100
100000000100011
011000100111010
000000000000000
000000000000000
000000000000000
000000000000000
000000000000000
000000000000000
000000000000000
000000000000000
000000000000000
000000000000000
000000000000000
000000000000000
000000000000000
000000000000000
000000000000000
000000000000000
000000000000000
000000000000000
011110100110101
001111100100100
000111000011001
000011101110011
000100101110010
001000111010100
010000010111010
011011111100100
001000110010000
011000101111110
001001110001111
011101111100010
010010010010110
000111100101011
100000000100011
011000100111010
000000000000000
000000000000000
000000000000000
000000000000000
000000000000000
000000000000000
000000000000000
000000000000000
000000000000000
000000000000000
000000000000000
000000000000000
000000000000000
000000000000000
000000000000000
000000000000000
000000000000000
000000000000000
011011011010010
001101011100010
000100110110110
000001100110001
000010100110000
000110110010010
001111010011001
011010111000011
000111101101111
010111101011101
001000101101110
011100111000001
010001001110101
000111100101011
011111000000010
010111100011001
000000000000000
000000000000000
000000000000000
000000000000000
000000000000000
000000000000000
000000000000000
000000000000000
000000000000000
000000000000000
000000000000000
000000000000000
000000000000000
000000000000000
000000000000000
000000000000000
000000000000000
000000000000000
011000001101111
001010010011110
000010101110100
100000011101111
000000011101110
000101101110001
001101001010111
011001110100010
000110101001110
010110100111100
000111101001101
011100111000001
010000001010100
000110100001010
011110111100001
010111100011001
000000000000000
011110111100001
010110011111000
000000000000000
000000000000000
000000000000000
000000000000000
000000000000000
000000000000000
000000000000000
000000000000000
000000000000000
000000000000000
000000000000000
000000000000000
000000000000000
000000000000000
000000000000000
010101000001100
000111000111011
100000100010001
011101010001100
011111010101100
000011100101111
001100000110110
010111101100000
000101100101101
010101100011011
000111101001101
011011110100000
010000001010100
000110100001010
000000000000000
001111000110011
000101011101001
011101111000000
010110011111000
000000000000000
000000000000000
000000000000000
000000000000000
000000000000000
000000000000000
000000000000000
000000000000000
000000000000000
000000000000000
000000000000000
000000000000000
000000000000000
000000000000000
000000000000000
010001110001000
000100111011000
011110011001111
011011001001010
011101001101010
000010100001110
001010111110100
010110101011110
000100100001100
010100011111010
000110100101100
011010110011110
000000000000000
011010110011110
001111000110011
000101011101001
011101111000000
010110011111000
000000000000000
000000000000000
000000000000000
000000000000000
000000000000000
000000000000000
000000000000000
000000000000000
000000000000000
000000000000000
000000000000000
000000000000000
000000000000000
000000000000000
000000000000000
010001110001000
000100111011000
011110011001111
011011001001010
011101001101010
000010100001110
001010111110100
010110101011110
000011011101011
010100011111010
000110100101100
000000000000000
010011011011001
000101100001011
011001101111101
001110000010010
000100011001000
011101111000000
010101011010111
000000000000000
000000000000000
000000000000000
000000000000000
000000000000000
000000000000000
000000000000000
000000000000000
000000000000000
000000000000000
000000000000000
000000000000000
000000000000000
000000000000000
000000000000000
001110100100101
000010110010110
011011001101100
011001000001000
011011000101000
000000011001100
001001111010011
010101100111101
000010011001010
000000000000000
010100100011100
000001010101001
010010010111000
000100011101010
011001101111101
001110000010010
000100011001000
011100110111110
010101011010111
000000000000000
000000000000000
000000000000000
000000000000000
000000000000000
000000000000000
000000000000000
000000000000000
000000000000000
000000000000000
000000000000000
000000000000000
000000000000000
000000000000000
000000000000000
001011011000010
100000100110011
011001000101010
010111111000110
011001111100110
011111010001010
001000110110010
000000000000000
011110001101001
000110101110000
010010011011010
000000010001000
010001010010111
000011011001001
011000101011100
001101111110001
000011010100111
011100110111110
010101011010111
000000000000000
000000000000000
000000000000000
000000000000000
000000000000000
000000000000000
000000000000000
000000000000000
000000000000000
000000000000000
000000000000000
000000000000000
000000000000000
000000000000000
000000000000000
001000001111110
011101011010000
010111111101000
010101110000100
011000111000101
000000000000000
010011101000010
010110110000011
011100000100111
000101101001111
010001010111001
100000001100111
010000001110110
000010010101000
010111100111011
001100111010000
000011010100111
011011110011101
000000000000000
000000000000000
000000000000000
000000000000000
000000000000000
000000000000000
000000000000000
000000000000000
000000000000000
000000000000000
000000000000000
000000000000000
000000000000000
000000000000000
000000000000000
000000000000000
000101000011011
011011010001110
010101110100110
000000000000000
011000000101011
010010101000011
010001100000000
010100101000001
011011000000110
000011100001101
010000010011000
011111001000110
001111001010101
000010010101000
010110100011010
001100111010000
000010010000110
011011110011101
000000000000000
000000000000000
000000000000000
000000000000000
000000000000000
000000000000000
000000000000000
000000000000000
000000000000000
000000000000000
000000000000000
000000000000000
000000000000000
000000000000000
000000000000000
000000000000000
000010110111000
000000000000000
000000000000000
100000101010101
010110111101001
010000100000001
001111011011101
010010100011110
011001111000100
000010011101100
001111001110111
011110000100101
001110000110100
000001010000111
010110100011010
001011110101111
000010010000110
011011110011101
000000000000000
000000000000000
000000000000000
000000000000000
000000000000000
000000000000000
000000000000000
000000000000000
000000000000000
000000000000000
000000000000000
000000000000000
000000000000000
000000000000000
000000000000000
000000000000000
000000000000000
000000000000000
000000000000000
011101011110010
010011110000110
001110011011110
001101010011011
010001011111101
011000110100011
000001011001011
001110001010110
011101000000100
001110000110100
000000001100110
010101011111001
001010110001110
000001001100101
011010101111100
000000000000000
000000000000000
000000000000000
000000000000000
000000000000000
000000000000000
000000000000000
000000000000000
000000000000000
000000000000000
000000000000000
000000000000000
000000000000000
000000000000000
000000000000000
000000000000000
000000000000000
000000000000000
000000000000000
011011010110000
010000100100011
001011001111011
001011001011001
001111010111011
010110101100001
100000010001001
001101000110101
011100111100011
001101000010011
100000001000101
010100011011000
001010110001110
000001001100101
011010101111100
000000000000000
000000000000000
000000000000000
000000000000000
000000000000000
000000000000000
000000000000000
000000000000000
000000000000000
000000000000000
000000000000000
000000000000000
000000000000000
000000000000000
000000000000000
000000000000000
000000000000000
000000000000000
000000000000000
011000001001101
001110011100001
001001000111001
001001000010111
001101001111001
010101101000000
011111001101000
001011111110011
011011111000010
001100111110010
011111000100100
010100011011000
001001101101101
000000001000100
011001101011011
000000000000000
000000000000000
000000000000000
000000000000000
000000000000000
000000000000000
000000000000000
000000000000000
000000000000000
000000000000000
000000000000000
000000000000000
000000000000000
000000000000000
000000000000000
000000000000000
000000000000000
000000000000000
000000000000000
010101111101010
001011010011101
000111111110111
000111111010101
001011000110111
010011100011101
011110001000111
001010111010010
011010110100001
001011111010001
011111000100100
010011010110111
001001101101101
000000001000100
011001101011011
000000000000000
000000000000000
000000000000000
000000000000000
000000000000000
000000000000000
000000000000000
000000000000000
000000000000000
000000000000000
000000000000000
000000000000000
000000000000000
000000000000000
000000000000000
000000000000000
000000000000000
000000000000000
000000000000000
010010110000111
001001001011011
000101110110101
000101110010011
001010000010110
010010011111100
011100000000101
001001110110001
011001110000000
001010110110000
011110000000011
010010010010110
001000101001100
100000000100011
011000100111010
000000000000000
000000000000000
000000000000000
000000000000000
000000000000000
000000000000000
000000000000000
000000000000000
000000000000000
000000000000000
000000000000000
000000000000000
000000000000000
000000000000000
000000000000000
000000000000000
000000000000000
000000000000000
011110100110101
001111100100100
000110111111000
000011101110011
000011101010001
001000111010100
010000010111010
011011111100100
001000110010000
011000101111110
001001110001111
011101111100010
010001001110101
000111100101011
100000000100011
011000100111010
000000000000000
000000000000000
000000000000000
000000000000000
000000000000000
000000000000000
000000000000000
000000000000000
000000000000000
000000000000000
000000000000000
000000000000000
000000000000000
000000000000000
000000000000000
000000000000000
000000000000000
000000000000000
011011011010010
001101011100010
000100110110110
000001100110001
000010100110000
000110110010010
001111010011001
011010111000011
000111101101111
010111101011101
001000101101110
011100111000001
010001001110101
000111100101011
011111000000010
010111100011001
000000000000000
000000000000000
010111100011001
000000000000000
000000000000000
000000000000000
000000000000000
000000000000000
000000000000000
000000000000000
000000000000000
000000000000000
000000000000000
000000000000000
000000000000000
000000000000000
000000000000000
000000000000000
011000001101111
001010010011110
000010101110100
011111011001110
000000011101110
000101101110001
001101001010111
011001110100010
000110101001110
010110100111100
000111101001101
011011110100000
010000001010100
000110100001010
011110111100001
000000000000000
000110100001010
011110111100001
010110011111000
000000000000000
000000000000000
000000000000000
000000000000000
000000000000000
000000000000000
000000000000000
000000000000000
000000000000000
000000000000000
000000000000000
000000000000000
000000000000000
000000000000000
000000000000000
010100111101011
000111000111011
100000100010001
011101010001100
011111010101100
000011100101111
001100000110110
010111101100000
000101100101101
010101100011011
000111101001101
011011110100000
010000001010100
000000000000000
001111000110011
000110100001010
011110111100001
010110011111000
000000000000000
000000000000000
000000000000000
000000000000000
000000000000000
000000000000000
000000000000000
000000000000000
000000000000000
000000000000000
000000000000000
000000000000000
000000000000000
000000000000000
000000000000000
010100111101011
000111000111011
100000100010001
011101010001100
011111010101100
000011100101111
001100000110110
010111101100000
000101100101101
010101100011011
000110100101100
011011110100000
000000000000000
000110100101100
011010110011110
001111000110011
000101011101001
011101111000000
010110011111000
000000000000000
000000000000000
000000000000000
000000000000000
000000000000000
000000000000000
000000000000000
000000000000000
000000000000000
000000000000000
000000000000000
000000000000000
000000000000000
000000000000000
000000000000000
010001110001000
000100111011000
011110011001111
011011001001010
011101001101010
000001011101101
001010111110100
010110101011110
000011011101011
010100011111010
000000000000000
000010011001010
010011011011001
000101100001011
011001101111101
001110000010010
000100011001000
011101111000000
010101011010111
000000000000000
000000000000000
000000000000000
000000000000000
000000000000000
000000000000000
000000000000000
000000000000000
000000000000000
000000000000000
000000000000000
000000000000000
000000000000000
000000000000000
000000000000000
001110100100101
000010110010110
011011001101100
011001000001000
011011000101000
000000011001100
001001111010011
010101100111101
000000000000000
001000110110010
010100100011100
000001010101001
010010010111000
000100011101010
011000101011100
001110000010010
000100011001000
011100110111110
010101011010111
000000000000000
000000000000000
000000000000000
000000000000000
000000000000000
000000000000000
000000000000000
000000000000000
000000000000000
000000000000000
000000000000000
000000000000000
000000000000000
000000000000000
000000000000000
001011011000010
100000100110011
011001000101010
010111111000110
011001111100110
011111010001010
000000000000000
011000111000101
011110001101001
000110101110000
010010011011010
000000010001000
010001010010111
000011011001001
011000101011100
001101111110001
000011010100111
011100110111110
010101011010111
000000000000000
000000000000000
000000000000000
000000000000000
000000000000000
000000000000000
000000000000000
000000000000000
000000000000000
000000000000000
000000000000000
000000000000000
000000000000000
000000000000000
000000000000000
001000001111110
011101011010000
010111111101000
010101110000100
000000000000000
010100110000101
010011101000010
010110110000011
011100000100111
000101101001111
010001010111001
100000001100111
010000001110110
000010010101000
010111100111011
001100111010000
000011010100111
011011110011101
000000000000000
000000000000000
000000000000000
000000000000000
000000000000000
000000000000000
000000000000000
000000000000000
000000000000000
000000000000000
000000000000000
000000000000000
000000000000000
000000000000000
000000000000000
000000000000000
000101000011011
011011010001110
000000000000000
000010110111000
011000000101011
010010101000011
010001100000000
010100101000001
011011000000110
000011100001101
010000010011000
011111001000110
001111001010101
000001010000111
010110100011010
001100111010000
000010010000110
011011110011101
000000000000000
000000000000000
000000000000000
000000000000000
000000000000000
000000000000000
000000000000000
000000000000000
000000000000000
000000000000000
000000000000000
000000000000000
000000000000000
000000000000000
000000000000000
000000000000000
000000000000000
000000000000000
000000000000000
100000101010101
010101111001000
010000100000001
001111011011101
010010100011110
011001111000100
000010011101100
001111001110111
011110000100101
001110000110100
000001010000111
010110100011010
001011110101111
000010010000110
011010101111100
000000000000000
000000000000000
000000000000000
000000000000000
000000000000000
000000000000000
000000000000000
000000000000000
000000000000000
000000000000000
000000000000000
000000000000000
000000000000000
000000000000000
000000000000000
000000000000000
000000000000000
000000000000000
000000000000000
011101011110010
010011110000110
001110011011110
001101010011011
010000011011100
011000110100011
000001011001011
001110001010110
011101000000100
001110000110100
000000001100110
010101011111001
001010110001110
000001001100101
011010101111100
000000000000000
000000000000000
000000000000000
000000000000000
000000000000000
000000000000000
000000000000000
000000000000000
000000000000000
000000000000000
000000000000000
000000000000000
000000000000000
000000000000000
000000000000000
000000000000000
000000000000000
000000000000000
000000000000000
011011010110000
010000100100011
001011001111011
001011001011001
001111010111011
010110101100001
100000010001001
001100000010100
011100111100011
001101000010011
100000001000101
010100011011000
001010110001110
000001001100101
011010101111100
000000000000000
000000000000000
000000000000000
000000000000000
000000000000000
000000000000000
000000000000000
000000000000000
000000000000000
000000000000000
000000000000000
000000000000000
000000000000000
000000000000000
000000000000000
000000000000000
000000000000000
000000000000000
000000000000000
011000001001101
001110011100001
001001000111001
001001000010111
001101001111001
010101101000000
011111001101000
001011111110011
011011111000010
001100111110010
011111000100100
010100011011000
001001101101101
000000001000100
011001101011011
000000000000000
000000000000000
000000000000000
000000000000000
000000000000000
000000000000000
000000000000000
000000000000000
000000000000000
000000000000000
000000000000000
000000000000000
000000000000000
000000000000000
000000000000000
000000000000000
000000000000000
000000000000000
000000000000000
010101111101010
001011010011101
000111111110111
000111111010101
001011000110111
010011100011101
011110001000111
001010111010010
011010110100001
001011111010001
011111000100100
010011010110111
001001101101101
000000001000100
011001101011011
000000000000000
000000000000000
000000000000000
000000000000000
000000000000000
000000000000000
000000000000000
000000000000000
000000000000000
000000000000000
000000000000000
000000000000000
000000000000000
000000000000000
000000000000000
000000000000000
000000000000000
000000000000000
000000000000000
010010110000111
001001001011011
000101110110101
000101110010011
001010000010110
010010011111100
011100000000101
001001110110001
011001110000000
001010110110000
011110000000011
010010010010110
001000101001100
100000000100011
011000100111010
000000000000000
000000000000000
000000000000000
000000000000000
000000000000000
000000000000000
000000000000000
000000000000000
000000000000000
000000000000000
000000000000000
000000000000000
000000000000000
000000000000000
000000000000000
000000000000000
000000000000000
000000000000000
011110100110101
001111100100100
000110111111000
000011101110011
000011101010001
001000111010100
010000010111010
011011111100100
001000110010000
011000101111110
001001110001111
011101111100010
010001001110101
000111100101011
011111000000010
011000100111010
000000000000000
000000000000000
000000000000000
000000000000000
000000000000000
000000000000000
000000000000000
000000000000000
000000000000000
000000000000000
000000000000000
000000000000000
000000000000000
000000000000000
000000000000000
000000000000000
000000000000000
000000000000000
011011011010010
001100011000001
000100110110110
000001100110001
000010100110000
000110110010010
001111010011001
011010111000011
000111101101111
010111101011101
001000101101110
011100111000001
010001001110101
000111100101011
011111000000010
010111100011001
000000000000000
011110111100001
010111100011001
000000000000000
000000000000000
000000000000000
000000000000000
000000000000000
000000000000000
000000000000000
000000000000000
000000000000000
000000000000000
000000000000000
000000000000000
000000000000000
000000000000000
000000000000000
010111001001110
001010010011110
000010101110100
011111011001110
000000011101110
000101101110001
001101001010111
011001110100010
000110101001110
010110100111100
000111101001101
011011110100000
010000001010100
000110100001010
000000000000000
000110100001010
011110111100001
010111100011001
000000000000000
000000000000000
000000000000000
000000000000000
000000000000000
000000000000000
000000000000000
000000000000000
000000000000000
000000000000000
000000000000000
000000000000000
000000000000000
000000000000000
000000000000000
010111001001110
001010010011110
000001101010011
011111011001110
000000011101110
000101101110001
001101001010111
011001110100010
000110101001110
010110100111100
000111101001101
011011110100000
010000001010100
000000000000000
011011110100000
001111000110011
000110100001010
011110111100001
010110011111000
000000000000000
000000000000000
000000000000000
000000000000000
000000000000000
000000000000000
000000000000000
000000000000000
000000000000000
000000000000000
000000000000000
000000000000000
000000000000000
000000000000000
000000000000000
010100111101011
000111000111011
100000100010001
011101010001100
011111010101100
000011100101111
001100000110110
010111101100000
000101100101101
010101100011011
000110100101100
000000000000000
010100011111010
000110100101100
011010110011110
001111000110011
000101011101001
011101111000000
010110011111000
000000000000000
000000000000000
000000000000000
000000000000000
000000000000000
000000000000000
000000000000000
000000000000000
000000000000000
000000000000000
000000000000000
000000000000000
000000000000000
000000000000000
000000000000000
010001110001000
000100111011000
011110011001111
011011001001010
011101001101010
000001011101101
001010111110100
010110101011110
000011011101011
000000000000000
010101100111101
000010011001010
010011011011001
000101100001011
011001101111101
001110000010010
000100011001000
011101111000000
010101011010111
000000000000000
000000000000000
000000000000000
000000000000000
000000000000000
000000000000000
000000000000000
000000000000000
000000000000000
000000000000000
000000000000000
000000000000000
000000000000000
000000000000000
000000000000000
001110100100101
000001101110101
011011001101100
011001000001000
011011000101000
000000011001100
001001111010011
000000000000000
011111010001010
000111110010001
010100100011100
000001010101001
010010010111000
000100011101010
011000101011100
001110000010010
000100011001000
011100110111110
010101011010111
000000000000000
000000000000000
000000000000000
000000000000000
000000000000000
000000000000000
000000000000000
000000000000000
000000000000000
000000000000000
000000000000000
000000000000000
000000000000000
000000000000000
000000000000000
001011011000010
100000100110011
011001000101010
010111111000110
011001111100110
000000000000000
010101110000100
010111110100100
011110001101001
000110101110000
010010011011010
000000010001000
010001010010111
000011011001001
011000101011100
001101111110001
000011010100111
011100110111110
010101011010111
000000000000000
000000000000000
000000000000000
000000000000000
000000000000000
000000000000000
000000000000000
000000000000000
000000000000000
000000000000000
000000000000000
000000000000000
000000000000000
000000000000000
000000000000000
001000001111110
011101011010000
010111111101000
000000000000000
011011010001110
010100110000101
010011101000010
010110110000011
011100000100111
000101101001111
010001010111001
100000001100111
010000001110110
000010010101000
010111100111011
001100111010000
000011010100111
011011110011101
000000000000000
000000000000000
000000000000000
000000000000000
000000000000000
000000000000000
000000000000000
000000000000000
000000000000000
000000000000000
000000000000000
000000000000000
000000000000000
000000000000000
000000000000000
000000000000000
000101000011011
000000000000000
000000000000000
000010110111000
011000000101011
010010101000011
010001100000000
010100101000001
011011000000110
000011100001101
010000010011000
011111001000110
001111001010101
000001010000111
010110100011010
001100111010000
000010010000110
011011110011101
000000000000000
000000000000000
000000000000000
000000000000000
000000000000000
000000000000000
000000000000000
000000000000000
000000000000000
000000000000000
000000000000000
000000000000000
000000000000000
000000000000000
000000000000000
000000000000000
000000000000000
000000000000000
000000000000000
100000101010101
010101111001000
010000100000001
001111011011101
010010100011110
011001111000100
000010011101100
001111001110111
011110000100101
001110000110100
000001010000111
010110100011010
001011110101111
000010010000110
011010101111100
000000000000000
000000000000000
000000000000000
000000000000000
000000000000000
000000000000000
000000000000000
000000000000000
000000000000000
000000000000000
000000000000000
000000000000000
000000000000000
000000000000000
000000000000000
000000000000000
000000000000000
000000000000000
000000000000000
011101011110010
010011110000110
001110011011110
001101010011011
010000011011100
010111110000010
000001011001011
001110001010110
011101000000100
001101000010011
000000001100110
010101011111001
001010110001110
000001001100101
011010101111100
000000000000000
000000000000000
000000000000000
000000000000000
000000000000000
000000000000000
000000000000000
000000000000000
000000000000000
000000000000000
000000000000000
000000000000000
000000000000000
000000000000000
000000000000000
000000000000000
000000000000000
000000000000000
000000000000000
011010010001111
010000100100011
001011001111011
001011001011001
001111010111011
